6.172839506172839164e-02,6.172839506172839164e-02,6.172839506172839164e-02,6.172839506172839164e-02,6.172839506172839164e-02,6.077348066298342288e-02,5.811336198076529069e-02,5.545324329854716544e-02,5.279312461632903325e-02,5.013300593411090106e-02,5.320237364436259525e-02,5.852261100879885269e-02,6.384284837323511708e-02,6.916308573767136758e-02,7.284632698997338396e-02,5.688561489666461163e-02,4.092490280335583236e-02,2.496419071004705309e-02,9.003478616738280760e-03,3.478616738285249688e-03,1.145897278493963889e-02,1.943932883159402852e-02,2.741968487824841816e-02,3.540004092490280779e-02,3.915149034854375348e-02,4.181160903076188567e-02,4.447172771298001093e-02,4.713184639519814312e-02,4.897346702134915131e-02,4.631334833913102605e-02,4.365322965691289386e-02,4.099311097469476861e-02,3.833299229247663642e-02,4.658618102448674331e-02,6.520701180001364783e-02,8.382784257554055929e-02,1.024486733510674707e-01,1.210695041265943683e-01,1.211377122979332838e-01,1.184775936157151377e-01,1.158174749334970194e-01,1.131573562512789011e-01,1.092694904849600829e-01,1.012891344383056585e-01,9.330877839165130361e-02,8.532842234499694867e-02,7.734806629834253822e-02,8.034922583725535861e-02,9.098970056612783186e-02,1.016301752950003051e-01,1.122706500238728755e-01,1.229111247527454320e-01,1.184093854443762223e-01,1.130891480799399856e-01,1.077689107155037074e-01,1.024486733510674152e-01,9.794693404269830261e-02,9.528681536048018430e-02,9.262669667826205211e-02,8.996657799604390604e-02,8.730645931382578773e-02,8.464634063160766941e-02,8.198622194938952334e-02,7.932610326717139115e-02,7.666598458495327284e-02,7.414228224541298540e-02,7.680240092763113147e-02,7.946251960984926366e-02,8.212263829206739585e-02,8.478275697428550028e-02,8.232726280608414215e-02,7.168678807721158563e-02,6.104631334833911238e-02,5.040583861946663219e-02,3.976536389059407567e-02,4.692722188118143845e-02,6.022781529227203001e-02,7.352840870336263546e-02,8.682900211445343519e-02,9.794693404269826098e-02,8.996657799604390604e-02,8.198622194938955110e-02,7.400586590273519616e-02,6.602550985608071632e-02,6.418388922992974976e-02,6.950412659436598639e-02,7.482436395880232016e-02,8.014460132323855679e-02,8.546483868767479342e-02,2.479367028169970621e-01,4.447854853011378728e-01,6.416342677852819865e-01,8.384830502694227139e-01,9.665779960439264684e-01,7.803696882886550501e-01,5.941613805333867404e-01,4.079530727781183197e-01,2.217447650228500100e-01,1.300729827433327046e-01,1.194325080144600648e-01,1.087920332855875916e-01,9.815155855671511831e-02,8.751108382784245077e-02,7.687060909896997751e-02,6.623013437009750426e-02,5.558965964122503101e-02,4.494918491235255775e-02,4.112952731737272438e-02,5.709023941068143426e-02,7.305095150399015802e-02,8.901166359729911770e-02,1.049723756906078415e-01,1.029261305504399066e-01,8.962553713934931499e-02,7.632494372825870954e-02,6.302435031716790981e-02,4.972375690607731130e-02,5.456653707114111213e-02,5.988677443557743896e-02,6.520701180001367558e-02,7.052724916444991221e-02,7.584748652888614884e-02,8.116772389332238546e-02,8.648796125775870536e-02,9.180819862219494198e-02,9.712843598663117861e-02,8.771570834185916932e-02,7.175499624855045944e-02,5.579428415524174956e-02,3.983357206193303968e-02,2.523702339540271136e-02,3.587749812427536156e-02,4.651797285314783481e-02,5.715844758202030806e-02,6.779892231089296173e-02,7.625673555691975247e-02,8.157697292135598910e-02,8.689721028579222573e-02,9.221744765022846235e-02,9.753768501466478225e-02,9.671918695859763049e-02,9.405906827637951217e-02,9.139894959416133835e-02,8.873883091194323391e-02,8.539663051633582247e-02,7.741627446968146753e-02,6.943591842302711259e-02,6.145556237637262581e-02,5.347520632971827087e-02,4.938271604938271331e-02,4.938271604938271331e-02,4.938271604938271331e-02,4.938271604938271331e-02,4.938271604938271331e-02,6.288793397449006506e-02,7.884864606779903862e-02,9.480935816110801218e-02,1.107700702544164584e-01,1.212741286406110175e-01,1.106336539117387108e-01,9.999317918286607099e-02,8.935270445399340344e-02,7.871222972512111060e-02,7.857581338244327973e-02,8.655616942909749589e-02,9.453652547575198961e-02,1.025168815224064695e-01,1.104972375690606995e-01,1.111111111111111049e-01,1.111111111111111049e-01,1.111111111111111049e-01,1.111111111111111049e-01,1.103608212263828547e-01,1.077007025441647919e-01,1.050405838619466181e-01,1.023804651797285414e-01,9.972034649751038149e-02,9.194461496487260632e-02,8.130414023600031348e-02,7.066366550712765982e-02,6.002319077825536003e-02,4.938271604938271331e-02
9.876543209876542662e-02,9.610531341654729443e-02,9.344519473432916223e-02,9.078507605211103004e-02,8.812495736989291173e-02,8.355500989018484204e-02,7.557465384353044546e-02,6.759429779687606277e-02,5.961394175022167313e-02,5.163358570356728350e-02,4.938271604938271331e-02,4.938271604938271331e-02,4.938271604938271331e-02,4.938271604938271331e-02,5.061046313348339237e-02,6.657117522679217858e-02,8.253188732010094397e-02,9.849259941340973712e-02,1.144533115067185025e-01,1.188186344724097843e-01,1.081781597435372694e-01,9.753768501466475449e-02,8.689721028579222573e-02,7.625673555691971084e-02,8.041743400859423241e-02,8.839779005524861510e-02,9.637814610190301168e-02,1.043585021485573944e-01,1.111111111111111049e-01,1.111111111111111049e-01,1.111111111111111049e-01,1.111111111111111049e-01,1.111111111111111049e-01,1.097469476843325742e-01,1.070868290021144420e-01,1.044267103198963098e-01,1.017665916376781915e-01,9.910647295546005930e-02,8.948912079667142860e-02,7.884864606779887208e-02,6.820817133892638495e-02,5.756769661005391864e-02,4.754109542323169124e-02,3.956073937657726691e-02,3.158038332992291197e-02,2.360002728326856050e-02,1.561967123661413964e-02,2.018961871632228566e-02,3.349021212741287723e-02,4.679080553850346880e-02,6.009139894959417139e-02,7.339199236068487397e-02,8.164518109269490453e-02,8.962553713934925947e-02,9.760589318600368380e-02,1.055862492326581081e-01,1.062001227747083887e-01,9.023941068139967880e-02,7.427869858809083015e-02,5.831798649478198149e-02,4.235727440147327161e-02,3.881044949184911386e-02,4.147056817406725299e-02,4.413068685628539212e-02,4.679080553850351043e-02,4.972375690607731130e-02,6.302435031716802083e-02,7.632494372825870954e-02,8.962553713934931499e-02,1.029261305504398927e-01,1.080417434008594108e-01,1.000613873542049864e-01,9.208103130755063148e-02,8.410067526089626266e-02,7.612031921424183833e-02,6.813996316758742788e-02,6.015960712093307294e-02,5.217925107427871800e-02,4.419889502762422429e-02,3.621853898096986935e-02,2.823818293431551441e-02,2.025782688766115947e-02,1.227747084100680453e-02,4.297114794352317746e-03,8.594229588704762127e-03,2.721506036423159205e-02,4.583589113975872903e-02,6.445672191528556416e-02,8.307755269081239236e-02,2.479367028169970621e-01,4.447854853011378728e-01,6.416342677852819865e-01,8.384830502694227139e-01,9.641907100470640257e-01,7.646818088807018077e-01,5.651729077143429203e-01,3.656640065479840329e-01,1.661551053816251455e-01,7.837118886842638077e-02,8.635154491508087449e-02,9.433190096173522943e-02,1.023122570083895844e-01,1.102926130550440642e-01,1.087238251142486622e-01,1.060637064320305439e-01,1.034035877498124256e-01,1.007434690675943073e-01,9.671918695859758885e-02,8.873883091194323391e-02,8.075847486528886510e-02,7.277811881863438526e-02,6.479776277198001644e-02,6.336539117386262576e-02,6.602550985608074408e-02,6.868562853829887627e-02,7.134574722051703621e-02,7.400586590273515453e-02,7.148216356319486708e-02,6.882204488097670714e-02,6.616192619875858882e-02,6.350180751654047051e-02,6.261510128913443107e-02,6.527521997135254939e-02,6.793533865357070933e-02,7.059545733578882765e-02,7.325557601800694596e-02,6.486597094331886248e-02,5.156537753222826398e-02,3.826478412113767241e-02,2.496419071004708085e-02,1.289134438305703304e-02,2.353181911192968323e-02,3.417229384080215648e-02,4.481276856967462974e-02,5.545324329854728340e-02,6.391105654457407415e-02,6.923129390901031077e-02,7.455153127344654740e-02,7.987176863788278403e-02,8.519200600231910392e-02,8.232726280608414215e-02,7.700702544164790553e-02,7.168678807721158563e-02,6.636655071277534901e-02,6.172839506172839164e-02,6.172839506172839164e-02,6.172839506172839164e-02,6.172839506172839164e-02,6.172839506172839164e-02,6.172839506172839164e-02,6.172839506172839164e-02,6.172839506172839164e-02,6.172839506172839164e-02,6.172839506172839164e-02,6.848100402428206057e-02,7.646136007093655429e-02,8.444171611759104801e-02,9.242207216424526417e-02,9.767410135734254373e-02,9.235386399290639037e-02,8.703362662847007047e-02,8.171338926403373670e-02,7.639315189959758334e-02,7.257349430461766671e-02,6.991337562239959003e-02,6.725325694018143008e-02,6.459313825796327013e-02,6.193301957574519345e-02,5.927290089352703351e-02,5.661278221130886662e-02,5.395266352909079688e-02,5.129254484687262999e-02,5.238387558829569329e-02,6.302435031716799307e-02,7.366482504604063286e-02,8.430529977491293958e-02,9.494577450378559325e-02,9.194461496487260632e-02,8.130414023600031348e-02,7.066366550712765982e-02,6.002319077825536003e-02,4.938271604938271331e-02
1.285714285714285587e-01,1.224151539068666084e-01,1.162588792423046580e-01,1.101026045777426937e-01,1.039463299131807433e-01,1.000000000000000056e-01,1.000000000000000056e-01,1.000000000000000056e-01,1.000000000000000056e-01,1.000000000000000056e-01,1.000000000000000056e-01,1.000000000000000056e-01,1.000000000000000056e-01,1.000000000000000056e-01,1.007103393843725436e-01,1.099447513812154692e-01,1.191791633780584087e-01,1.284135753749013342e-01,1.376479873717442737e-01,1.401736385161799492e-01,1.340173638516179988e-01,1.278610891870560207e-01,1.217048145224940703e-01,1.155485398579321199e-01,1.118389897395422189e-01,1.087608524072612437e-01,1.056827150749802685e-01,1.026045777426992933e-01,9.952644041041831813e-02,9.644830307813732906e-02,9.337016574585635387e-02,9.029202841357537868e-02,8.721389108129438961e-02,9.202841357537491773e-02,1.043409629044988185e-01,1.166535122336227331e-01,1.289660615627466478e-01,1.412786108918705485e-01,1.321231254932912214e-01,1.198105761641672651e-01,1.074980268350433921e-01,9.518547750591953294e-02,8.429360694554063893e-02,7.813733228097866079e-02,7.198105761641672429e-02,6.582478295185478778e-02,5.966850828729280964e-02,6.803472770323608365e-02,8.650355169692187929e-02,1.049723756906076749e-01,1.234411996842936232e-01,1.419100236779795854e-01,1.282557221783740820e-01,1.128650355169692615e-01,9.747434885556430229e-02,8.208366219415934306e-02,7.805840568271510405e-02,9.960536700868186100e-02,1.211523283346488122e-01,1.426992896606157357e-01,1.642462509865825204e-01,1.611681136543015314e-01,1.457774269928965860e-01,1.303867403314916407e-01,1.149960536700868063e-01,1.000000000000000056e-01,1.000000000000000056e-01,1.000000000000000056e-01,1.000000000000000056e-01,1.000000000000000056e-01,1.035516969218626820e-01,1.127861089187056631e-01,1.220205209155485471e-01,1.312549329123914588e-01,1.404893449092344260e-01,1.314127861089186000e-01,1.160220994475137796e-01,1.006314127861089591e-01,8.524072612470387500e-02,7.205998421468037818e-02,7.821625887924231468e-02,8.437253354380425119e-02,9.052880820836618769e-02,9.668508287292822134e-02,1.028413575374901440e-01,1.089976322020520805e-01,1.151539068666141141e-01,1.213101815311760368e-01,1.274664561957379594e-01,2.826361483820043485e-01,4.704025256511432662e-01,6.581689029202852925e-01,8.459352801894242102e-01,9.657458563535915586e-01,7.749013417521685154e-01,5.840568271507486919e-01,3.932123125493287574e-01,2.023677979479088229e-01,1.109707971586424979e-01,1.048145224940804643e-01,9.865824782951852778e-02,9.250197316495660516e-02,8.634569850039457151e-02,6.913970007892647485e-02,5.067087608524068615e-02,3.220205209155488357e-02,1.373322809786908794e-02,5.524861878453180691e-03,2.707182320441994458e-02,4.861878453038670500e-02,7.016574585635382277e-02,9.171270718232059360e-02,1.018942383583267691e-01,1.049723756906077304e-01,1.080505130228886917e-01,1.111286503551697086e-01,1.142067876874506699e-01,1.022888713496448443e-01,8.997632202052077699e-02,7.766377269139690398e-02,6.535122336227305873e-02,6.124704025256509643e-02,7.355958958168895556e-02,8.587213891081302286e-02,9.818468823993689587e-02,1.104972375690607550e-01,1.164167324388319102e-01,1.194948697711128854e-01,1.225730071033938468e-01,1.256511444356748219e-01,1.273086029992108459e-01,1.026835043409627252e-01,7.805840568271499302e-02,5.343330702446727476e-02,2.880820836621914016e-02,2.565114443567501762e-02,5.335438042620371107e-02,8.105761641673241147e-02,1.087608524072611049e-01,1.364640883977902563e-01,1.381215469613259472e-01,1.319652722967639968e-01,1.258089976322019909e-01,1.196527229676400406e-01,1.142857142857142821e-01,1.142857142857142821e-01,1.142857142857142821e-01,1.142857142857142821e-01,1.142857142857142821e-01,1.097868981846882447e-01,1.005524861878451942e-01,9.131807419100244905e-02,8.208366219415939857e-02,7.284925019731634810e-02,7.142857142857142461e-02,7.142857142857142461e-02,7.142857142857142461e-02,7.142857142857142461e-02,7.016574585635351746e-02,6.400947119179167810e-02,5.785319652722965139e-02,5.169692186266761774e-02,4.554064719810578532e-02,5.153906866614060833e-02,6.692975532754519286e-02,8.232044198895027698e-02,9.771112865035536110e-02,1.131018153117599317e-01,1.057616416732438391e-01,9.652722967640078866e-02,8.729281767955804350e-02,7.805840568271499302e-02,7.576953433307055674e-02,9.116022099447512739e-02,1.065509076558802115e-01,1.219415943172847960e-01,1.373322809786898802e-01,1.468034727703236841e-01,1.529597474348855235e-01,1.591160220994475571e-01,1.652722967640093965e-01,1.714285714285714302e-01
3.947368421052631360e-02,4.797906368130270410e-02,5.648444315207909461e-02,6.498982262285547817e-02,7.349520209363186174e-02,8.200058156440825918e-02,9.050596103518464275e-02,9.901134050596102631e-02,1.075167199767374238e-01,1.160220994475138073e-01,1.021372492003489313e-01,7.945623727827855198e-02,5.677522535620819349e-02,3.409421343413782113e-02,1.403024134922943068e-02,2.537074731026461513e-02,3.671125327129980132e-02,4.805175923233498403e-02,5.939226519337016674e-02,6.331782494911310233e-02,5.764757196859551791e-02,5.197731898807792655e-02,4.630706600756033520e-02,4.063681302704273690e-02,4.172724629252689416e-02,4.456237278278569330e-02,4.739749927304448551e-02,5.023262576330328466e-02,5.088688572259376930e-02,3.954637976155858659e-02,2.820587380052339693e-02,1.686536783948821422e-02,5.524861878453031505e-03,8.723466123873232017e-03,2.573422506542600782e-02,4.274498400697878536e-02,5.975574294853155943e-02,7.676650189008434044e-02,6.658912474556555328e-02,5.241349229427151590e-02,3.823785984297759649e-02,2.406222739168367014e-02,1.642919453329457630e-02,3.060482698458861367e-02,4.478045943588253308e-02,5.895609188717645943e-02,7.313172433847049680e-02,7.225937772608309606e-02,6.091887176504796192e-02,4.957836580401282778e-02,3.823785984297759649e-02,2.689735388194236521e-02,3.976446641465544024e-02,5.394009886594935965e-02,6.811573131724339702e-02,8.229136376853743440e-02,9.297760977028206308e-02,9.581273626054084835e-02,9.864786275079964750e-02,1.014829892410584605e-01,1.043181157313172458e-01,9.581273626054088999e-02,8.163710380924685261e-02,6.746147135795280136e-02,5.328583890665888889e-02,3.961907531259085263e-02,4.528932829310846481e-02,5.095958127362608392e-02,5.662983425414365446e-02,6.230008723466122500e-02,6.142774062227389364e-02,5.008723466123866930e-02,3.874672870020352822e-02,2.740622273916838714e-02,1.606571677813315585e-02,1.526606571677814952e-02,1.810119220703693133e-02,2.093631869729571660e-02,2.377144518755455044e-02,2.602500726955508589e-02,2.318988077929630062e-02,2.035475428903751535e-02,1.751962779877873355e-02,1.468450130851990144e-02,1.708345449258506787e-02,2.558883396336142368e-02,3.409421343413791827e-02,4.259959290491426714e-02,5.110497237569062295e-02,2.201221285257338178e-01,4.242512358243663018e-01,6.283803431230021719e-01,8.325094504216346003e-01,9.618348357080550581e-01,7.492003489386427351e-01,5.365658621692339647e-01,3.239313753998250833e-01,1.112968886304163130e-01,2.384414073858667771e-02,4.369002617039849379e-02,6.353591160220997680e-02,8.338179703402147369e-02,1.032276824658332898e-01,8.745274789182888586e-02,6.760686246001740285e-02,4.776097702820590596e-02,2.791509159639440907e-02,1.388485024716489165e-02,1.671997673742367518e-02,1.955510322768246045e-02,2.239022971794129083e-02,2.522535620820007610e-02,2.980517592323351020e-02,3.547542890375107727e-02,4.114568188426864781e-02,4.681593486478631549e-02,5.248618784530387910e-02,5.263157894736841813e-02,5.263157894736841813e-02,5.263157894736841813e-02,5.263157894736841813e-02,5.641174760104679387e-02,6.775225356208193495e-02,7.909275952311725644e-02,9.043326548415239752e-02,1.017737714451875386e-01,9.152369874963629803e-02,7.167781331782480114e-02,5.183192788601331813e-02,3.198604245420182124e-02,1.315789473684210453e-02,1.315789473684210453e-02,1.315789473684210453e-02,1.315789473684210453e-02,1.315789473684210453e-02,1.199476592032565521e-02,9.159639430066871674e-03,6.324512939808086404e-03,3.489386449549301134e-03,6.542599592904707606e-04,1.090433265484156908e-02,2.507996510613548849e-02,3.925559755742964729e-02,5.343123000872356670e-02,6.578947368421052266e-02,6.578947368421052266e-02,6.578947368421052266e-02,6.578947368421052266e-02,6.578947368421052266e-02,6.026461180575749116e-02,4.892410584472216967e-02,3.758359988368721594e-02,2.624309392265189445e-02,1.490258796161656601e-02,2.995056702529795556e-02,4.979645245710977164e-02,6.964233788892160160e-02,8.948822332073275154e-02,1.029369002617038370e-01,9.159639430066889021e-02,8.025588833963356872e-02,6.891538237859824723e-02,5.757487641756329350e-02,5.423088107007852793e-02,5.706600756033726463e-02,5.990113405059609847e-02,6.273626054085493231e-02,6.557138703111366207e-02,7.625763303285842953e-02,8.759813899389375103e-02,9.893864495492871169e-02,1.102791509159640193e-01,1.120238441407381130e-01,8.934283221866821945e-02,6.666182029659756259e-02,4.398080837452766900e-02,2.129979645245701214e-02,2.042744984006997222e-02,3.176795580110491901e-02,4.310846176214024744e-02,5.444896772317520117e-02,6.578947368421052266e-02
6.849315068493150305e-02,8.325134337394989037e-02,9.800953606296827769e-02,1.127677287519866789e-01,1.275259214410050523e-01,1.369863013698630061e-01,1.369863013698630061e-01,1.369863013698630061e-01,1.369863013698630061e-01,1.369863013698630061e-01,1.285098009536062846e-01,1.167032468023915803e-01,1.048966926511768621e-01,9.309013849996214396e-02,8.378112464996594067e-02,1.044425944145916940e-01,1.251040641792174335e-01,1.457655339438431730e-01,1.664270037084689124e-01,1.729357450995231693e-01,1.611291909483084650e-01,1.493226367970937607e-01,1.375160826458790564e-01,1.257095284946643243e-01,1.256338454552334838e-01,1.285854839930371529e-01,1.315371225308408221e-01,1.344887610686445190e-01,1.388026943162037341e-01,1.506092484674184384e-01,1.624158026186331705e-01,1.742223567698478748e-01,1.860289109210625791e-01,1.796715356088700311e-01,1.560584273064405947e-01,1.324453190040111861e-01,1.088322107015817497e-01,8.521910239915232721e-02,9.248467418451525313e-02,1.042912283357300129e-01,1.160977824869446895e-01,1.279043366381593383e-01,1.356240066601074601e-01,1.297207295845000663e-01,1.238174525088927419e-01,1.179141754332854175e-01,1.120108983576780237e-01,1.113297510028002785e-01,1.142813895406039476e-01,1.172330280784076167e-01,1.201846666162112998e-01,1.231363051540149967e-01,1.064860364792249714e-01,8.877620525240298432e-02,7.106637402558084460e-02,5.335654279875870487e-02,4.654506924998109973e-02,6.425490047680310068e-02,8.196473170362522653e-02,9.967456293044738014e-02,1.173843941572693672e-01,1.134488761068644797e-01,9.869068341784603682e-02,8.393249072882758011e-02,6.917429803980926217e-02,5.524861878453033587e-02,7.295845001135248253e-02,9.066828123817462226e-02,1.083781124649966232e-01,1.260879436918186103e-01,1.403920381442518850e-01,1.492469537576629479e-01,1.581018693710739553e-01,1.669567849844849350e-01,1.758117005978960257e-01,1.780821917808219079e-01,1.780821917808219079e-01,1.780821917808219079e-01,1.780821917808219079e-01,1.762657988344810689e-01,1.585559676076590818e-01,1.408461363808370947e-01,1.231363051540150938e-01,1.054264739271928014e-01,9.044123211988190636e-02,7.863467796866724369e-02,6.682812381745238672e-02,5.502156966623772405e-02,4.321501551502305444e-02,2.106258987360928037e-01,4.172405963823494490e-01,6.238552940286095083e-01,8.304699916748661259e-01,9.660939983349735583e-01,7.771891319155357358e-01,5.882842654961011331e-01,3.993793990766665303e-01,2.104745326572319275e-01,1.201089835767804731e-01,1.142057065011730377e-01,1.083024294255657133e-01,1.023991523499583750e-01,9.649587527435095347e-02,9.589041095890410427e-02,9.589041095890410427e-02,9.589041095890410427e-02,9.589041095890410427e-02,9.059259819874351805e-02,6.993112843411786184e-02,4.926965866949219869e-02,2.860818890486620247e-02,7.946719140240532386e-03,2.361310830242952311e-02,6.198440929387717679e-02,1.003557102853248340e-01,1.387270112767731156e-01,1.770983122682207866e-01,1.579505032922122465e-01,1.372890335275862295e-01,1.166275637629605733e-01,9.596609399833491705e-02,8.120790130931658524e-02,7.825626277151291610e-02,7.530462423370920533e-02,7.235298569590553619e-02,6.940134715810186705e-02,8.279724513736494429e-02,1.034587149019906005e-01,1.241201846666162567e-01,1.447816544312419129e-01,1.637780973283887720e-01,1.519715431771739012e-01,1.401649890259592524e-01,1.283584348747445758e-01,1.165518807235297188e-01,1.095890410958904049e-01,1.095890410958904049e-01,1.095890410958904049e-01,1.095890410958904049e-01,1.095890410958904049e-01,1.141300234617422388e-01,1.200333005373495632e-01,1.259365776129570125e-01,1.318398546885643230e-01,1.366078861727086924e-01,1.336562476349050232e-01,1.307046090971013541e-01,1.277529705592976295e-01,1.248013320214939603e-01,1.189737379853174903e-01,1.101188223719063441e-01,1.012639067584955033e-01,9.240899114508435708e-02,8.355407553167321089e-02,7.220161961704386899e-02,6.039506546582901203e-02,4.858851131461415507e-02,3.678195716339968668e-02,3.103004616665426194e-02,4.873987739347596104e-02,6.644970862029825343e-02,8.415953984712054581e-02,1.018693710739422414e-01,1.045939604934533473e-01,9.573904488004249258e-02,8.688412926663134639e-02,7.802921365322020020e-02,6.917429803980934544e-02,6.576856126542041103e-02,6.281692272761668638e-02,5.986528418981307276e-02,5.691364565200936199e-02,5.645954741542431876e-02,6.236282449103155295e-02,6.826610156663898143e-02,7.416937864224622257e-02,8.007265571785364411e-02,8.029970483614616572e-02,7.734806629834255209e-02,7.439642776053884132e-02,7.144478922273521382e-02,6.849315068493150305e-02
7.407407407407406996e-02,7.939431143851033434e-02,8.471454880294658485e-02,9.003478616738284923e-02,9.535502353181909974e-02,9.781051770002045787e-02,9.515039901780232567e-02,9.249028033558419348e-02,8.983016165336607517e-02,8.717004297114794298e-02,8.069026669394993578e-02,7.270991064729553921e-02,6.472955460064114264e-02,5.674919855398675994e-02,4.856421799331559624e-02,3.792374326444307442e-02,2.728326853557055606e-02,1.664279380669803771e-02,6.002319077825515881e-03,6.957233476570499377e-03,2.291794556987927778e-02,3.887865766318805705e-02,5.483936975649683632e-02,7.080008184980561559e-02,6.773071413955390752e-02,5.975035809289952482e-02,5.177000204624512825e-02,4.378964599959074555e-02,3.662778800900347298e-02,3.396766932678534773e-02,3.130755064456721554e-02,2.864743196234908681e-02,2.598731328013095809e-02,2.741968487824841816e-02,3.273992224268467560e-02,3.806015960712093305e-02,4.338039697155719743e-02,4.870063433599345487e-02,4.706363822385921380e-02,4.440351954164107467e-02,4.174340085942295636e-02,3.908328217720483805e-02,3.826478412113771405e-02,4.358502148557399924e-02,4.890525885001023587e-02,5.422549621444647250e-02,5.954573357888275076e-02,6.486597094331902902e-02,7.018620830775526565e-02,7.550644567219150227e-02,8.082668303662779441e-02,8.614692040106407267e-02,8.641975308641974829e-02,8.641975308641974829e-02,8.641975308641974829e-02,8.641975308641974829e-02,8.396425891821839016e-02,7.598390287156403522e-02,6.800354682490961089e-02,6.002319077825518656e-02,5.204283473160083162e-02,4.760930359457063443e-02,4.494918491235249530e-02,4.228906623013435617e-02,3.962894754791623786e-02,3.744628606507054841e-02,5.340699815837939013e-02,6.936771025168823879e-02,8.532842234499694867e-02,1.012891344383056585e-01,1.029261305504399066e-01,8.164518109269477963e-02,6.036423163494982619e-02,3.908328217720487274e-02,1.780233271945975970e-02,2.223586385649008179e-02,3.553645726758067336e-02,4.883705067867127186e-02,6.213764408976208548e-02,7.434690675942978721e-02,7.700702544164790553e-02,7.966714412386602384e-02,8.232726280608414215e-02,8.498738148830231598e-02,8.519200600231906229e-02,8.253188732010094397e-02,7.987176863788278403e-02,7.721164995566466571e-02,7.455153127344654740e-02,2.377736852874970108e-01,4.372825864538559260e-01,6.367914876202180885e-01,8.363003887865770869e-01,9.646681672464365587e-01,7.678193847622925006e-01,5.709706022781516621e-01,3.741218197940108237e-01,1.772730373098700962e-01,8.928449628265462679e-02,9.460473364709094668e-02,9.992497101152718331e-02,1.052452083759634199e-01,1.105654457403997537e-01,1.015619671236613342e-01,9.092149239478886091e-02,8.028101766591638766e-02,6.964054293704391441e-02,6.445672191528552253e-02,7.509719664415799578e-02,8.573767137303046904e-02,9.637814610190312270e-02,1.070186208307755960e-01,9.965213832617142442e-02,8.103130755064459623e-02,6.241047677511776109e-02,4.378964599959062065e-02,2.516881522406379246e-02,4.283473160084574904e-02,6.145556237637288949e-02,8.007639315189971074e-02,9.869722392742655281e-02,1.128845235659231838e-01,1.182047609303594204e-01,1.235249982947957403e-01,1.288452356592319770e-01,1.341654730236682136e-01,1.210695041265941185e-01,9.978855466884917202e-02,7.850760521110422552e-02,5.722665575335927901e-02,3.771911875042623097e-02,5.101971216151704458e-02,6.432030557260763615e-02,7.762089898369822771e-02,9.092149239478904132e-02,9.549143987449690285e-02,8.751108382784254791e-02,7.953072778118819297e-02,7.155037173453383803e-02,6.357001568787934431e-02,5.149716936088939018e-02,3.819657594979879167e-02,2.489598253870798500e-02,1.159538912761738649e-02,3.410408566946407111e-03,3.001159538912759328e-02,5.661278221130878335e-02,8.321396903349040364e-02,1.098151558556715868e-01,1.208648796125775804e-01,1.155446422481412605e-01,1.102244048837051071e-01,1.049041675192687872e-01,9.958393015483246735e-02,9.651456244458087030e-02,9.385444376236271036e-02,9.119432508014453653e-02,8.853420639792647373e-02,8.532842234499686540e-02,8.000818498056071204e-02,7.468794761612439215e-02,6.936771025168805838e-02,6.404747288725190502e-02,6.472955460064119815e-02,7.004979196507735151e-02,7.537002932951367140e-02,8.069026669394999129e-02,8.601050405838614465e-02,9.624172975922519468e-02,1.068822044880978483e-01,1.175226792169701412e-01,1.281631539458427949e-01,1.343018893663459612e-01,1.289816520019098356e-01,1.236614146374735018e-01,1.183411772730373485e-01,1.130209399086010147e-01,1.094059068276378999e-01,1.067457881454198232e-01,1.040856694632016632e-01,1.014255507809835866e-01,9.876543209876542662e-02
6.578947368421052266e-02,5.161384123291654080e-02,3.743820878162255894e-02,2.326257633032858402e-02,9.086943879034602156e-03,1.017737714451875768e-02,3.852864204710671620e-02,6.687990694969467298e-02,9.523117185228263670e-02,1.235824367548706004e-01,1.275079965106135360e-01,1.218377435300959516e-01,1.161674905495783533e-01,1.104972375690607689e-01,1.050450712416400034e-01,1.022099447513812043e-01,9.937481826112241901e-02,9.653969177086361986e-02,9.370456528060482071e-02,8.963361442279731139e-02,8.396336144227972698e-02,7.829310846176212868e-02,7.262285548124454426e-02,6.695260250072694597e-02,7.029659784821168378e-02,7.596685082872928207e-02,8.163710380924688037e-02,8.730735678976446479e-02,9.384995638266938056e-02,1.051904623437045772e-01,1.165309683047397599e-01,1.278714742657749426e-01,1.392119802268101392e-01,1.418290200639720777e-01,1.361587670834544794e-01,1.304885141029368811e-01,1.248182611224192967e-01,1.191480081419017123e-01,1.159494038964815205e-01,1.131142774062227213e-01,1.102791509159639360e-01,1.074440244257051508e-01,1.000290782204128898e-01,7.734806629834242719e-02,5.466705437627214503e-02,3.198604245420187675e-02,9.305030532131414178e-03,1.337598138993905360e-02,3.605699331200933055e-02,5.873800523407960578e-02,8.141901715615006141e-02,1.041000290782205240e-01,1.052631578947368363e-01,1.052631578947368363e-01,1.052631578947368363e-01,1.052631578947368363e-01,1.078801977318988164e-01,1.163855772026751723e-01,1.248909566734515975e-01,1.333963361442280227e-01,1.419017156150043646e-01,1.428467577784239828e-01,1.400116312881651559e-01,1.371765047979063568e-01,1.343413783076475576e-01,1.314335562663564994e-01,1.257633032858389011e-01,1.200930503053212750e-01,1.144227973248037045e-01,1.087525443442861339e-01,1.063535911602209866e-01,1.091887176504797996e-01,1.120238441407385849e-01,1.148589706309973701e-01,1.176940971212561832e-01,1.099883687118347608e-01,9.864786275079961975e-02,8.730735678976449254e-02,7.596685082872917105e-02,6.578947368421052266e-02,6.578947368421052266e-02,6.578947368421052266e-02,6.578947368421052266e-02,6.578947368421052266e-02,6.448095376562953951e-02,6.164582727537074730e-02,5.881070078511192040e-02,5.597557429485313513e-02,5.314044780459434986e-02,2.201221285257338178e-01,4.242512358243663018e-01,6.283803431230021719e-01,8.325094504216346003e-01,9.643791799941847653e-01,7.659203256760666045e-01,5.674614713579516634e-01,3.690026170398367222e-01,1.705437627217217811e-01,8.200058156440821755e-02,8.767083454492588523e-02,9.334108752544345577e-02,9.901134050596102631e-02,1.046815934864786801e-01,9.763012503634771466e-02,8.912474556557135885e-02,8.061936609479500304e-02,7.211398662401866111e-02,6.942425123582446345e-02,8.359988368711837592e-02,9.777551613841230227e-02,1.119511485897064507e-01,1.261267810410003909e-01,1.228554812445477873e-01,1.086798487932538748e-01,9.450421634195994847e-02,8.032858389066580007e-02,6.615295143937187372e-02,7.407676650189007339e-02,8.258214597266655410e-02,9.108752544344290991e-02,9.959290491421926572e-02,1.014829892410584605e-01,9.014248328002331945e-02,7.880197731898799796e-02,6.746147135795285688e-02,5.612096539691772273e-02,5.066879906949691564e-02,4.783367257923813037e-02,4.499854608897934510e-02,4.216341959872055983e-02,4.020063972084900877e-02,5.437627217214316411e-02,6.855190462343707658e-02,8.272753707473100293e-02,9.690316952602516520e-02,1.006106426286710320e-01,8.927013666763590483e-02,7.792963070660076375e-02,6.658912474556562267e-02,5.524861878453030117e-02,6.571677813317830519e-02,8.272753707473100293e-02,9.973829601628399211e-02,1.167490549578367037e-01,1.290346030822912826e-01,1.091887176504797996e-01,8.934283221866831659e-02,6.949694678685650051e-02,4.965106135504500362e-02,4.361733061936608896e-02,5.212271009014257661e-02,6.062808956091879364e-02,6.913346903169528823e-02,7.763884850247176894e-02,7.894736842105262720e-02,7.894736842105262720e-02,7.894736842105262720e-02,7.894736842105262720e-02,7.778423960453613450e-02,7.211398662401866111e-02,6.644373364350099342e-02,6.077348066298333268e-02,5.510322768246585234e-02,5.902878743820886426e-02,7.036929339924381799e-02,8.170979936027913948e-02,9.305030532131447485e-02,1.043908112823494216e-01,1.052631578947368363e-01,1.052631578947368363e-01,1.052631578947368363e-01,1.052631578947368363e-01,1.068624600174470363e-01,1.125327129979645235e-01,1.182029659784821773e-01,1.238732189589996507e-01,1.295434719395173184e-01,1.243093922651931776e-01,1.129688863041582308e-01,1.016283803431229094e-01,9.028787438208794869e-02,7.894736842105262720e-02
5.405405405405405705e-02,7.152456323727042486e-02,8.899507242048679267e-02,1.064655816037031605e-01,1.239360907869195283e-01,1.278184261609676131e-01,1.074361654472151817e-01,8.705390473346275027e-02,6.667164401971031884e-02,4.628938330595788742e-02,4.681200537554128932e-02,5.554725996714947323e-02,6.428251455875766407e-02,7.301776915036584104e-02,8.108108108108108558e-02,8.108108108108108558e-02,8.108108108108108558e-02,8.108108108108108558e-02,8.108108108108108558e-02,7.854263102881887948e-02,7.271912796774675225e-02,6.689562490667463890e-02,6.107212184560251167e-02,5.524861878453038444e-02,6.331193071524564286e-02,7.495893683738988345e-02,8.660594295953413790e-02,9.825294908167837848e-02,1.081081081081081141e-01,1.081081081081081141e-01,1.081081081081081141e-01,1.081081081081081141e-01,1.081081081081081141e-01,1.110945199342989465e-01,1.169180229953710737e-01,1.227415260564432009e-01,1.285650291175153281e-01,1.343885321785874276e-01,1.249813349260863043e-01,1.133343288039420083e-01,1.016873226817978093e-01,9.004031655965361036e-02,8.040913842018813928e-02,7.749738688965207567e-02,7.458563535911602593e-02,7.167388382857997620e-02,6.876213229804389870e-02,6.413319396744808498e-02,5.830969090637598551e-02,5.248618784530388603e-02,4.666268478423174493e-02,4.083918172315959688e-02,3.777810960131401663e-02,3.486635807077796689e-02,3.195460654024189634e-02,2.904285500970582579e-02,2.971479767059878943e-02,3.845005226220693517e-02,4.718530685381515377e-02,5.592056144542337237e-02,6.465581603703152158e-02,7.339107062863967079e-02,8.212632522024788939e-02,9.086157981185610799e-02,9.959683440346425720e-02,1.079587875167985905e-01,1.021352844557264355e-01,9.631178139465429444e-02,9.048827833358219497e-02,8.466477527251009549e-02,7.772136777661638185e-02,6.898611318500816325e-02,6.025085859340001404e-02,5.151560400179187177e-02,4.278034941018365317e-02,4.054054054054054279e-02,4.054054054054054279e-02,4.054054054054054279e-02,4.054054054054054279e-02,4.054054054054054279e-02,4.054054054054054279e-02,4.054054054054054279e-02,4.054054054054054279e-02,4.054054054054054279e-02,4.860385247125582203e-02,6.607436165447211351e-02,8.354487083768870337e-02,1.010153800209049879e-01,1.184858892041212863e-01,2.769150365835444938e-01,4.661788860683876434e-01,6.554427355532339572e-01,8.447065850380771623e-01,9.665521875466630553e-01,7.802000895923528745e-01,5.938479916380456913e-01,4.074958936837385082e-01,2.211437957294314360e-01,1.335672689263849855e-01,1.306555173958488802e-01,1.277437658653128305e-01,1.248320143347767808e-01,1.219202628042406755e-01,1.033298491862026519e-01,8.294758847245031763e-02,6.256532775869796947e-02,4.218306704494562132e-02,3.076004180976566263e-02,4.531879946244590784e-02,5.987755711512615653e-02,7.443631476780664114e-02,8.899507242048688982e-02,9.280274749888009489e-02,8.989099596834404515e-02,8.697924443780799542e-02,8.406749290727189017e-02,8.115574137673585431e-02,7.256980737643722867e-02,6.383455278482894069e-02,5.509929819322079148e-02,4.636404360161264226e-02,4.636404360161264226e-02,6.383455278482894069e-02,8.130506196804551666e-02,9.877557115126181508e-02,1.162460803344781135e-01,1.196057936389427895e-01,1.166940421084067397e-01,1.137822905778706900e-01,1.108705390473346403e-01,1.075108257428700059e-01,9.586381962072562657e-02,8.421681349858142762e-02,7.256980737643722867e-02,6.092280125429283544e-02,5.883231297595947068e-02,7.047931909810367657e-02,8.212632522024786164e-02,9.377333134239206058e-02,1.054203374645364399e-01,1.036284903688218517e-01,9.780498730774975225e-02,9.198148424667755563e-02,8.615798118560545615e-02,8.332088995072427229e-02,1.007913991339405568e-01,1.182619083171568553e-01,1.357324175003734312e-01,1.532029266835897297e-01,1.564879796923996091e-01,1.448409735702552159e-01,1.331939674481112112e-01,1.215469613259668180e-01,1.098999552038224248e-01,1.056443183515006906e-01,1.027325668209645992e-01,9.982081529042849399e-02,9.690906375989249977e-02,9.758100642078559872e-02,1.121397640734656115e-01,1.266985217261460961e-01,1.412572793788265946e-01,1.558160370315065935e-01,1.555920561445422456e-01,1.439450500223982410e-01,1.322980439002538477e-01,1.206510377781094684e-01,1.090040316559654637e-01,1.054203374645363567e-01,1.025085859340002514e-01,9.959683440346425720e-02,9.668508287292815195e-02,8.884575182917683889e-02,6.846349111542482380e-02,4.808123040167214257e-02,2.769896968792014136e-02,7.316708974167460133e-03,1.306555173958522283e-02,3.344781245333722924e-02,5.383007316708991047e-02,7.421233388084191862e-02,9.459459459459459985e-02
6.172839506172839164e-02,6.172839506172839164e-02,6.172839506172839164e-02,6.172839506172839164e-02,6.172839506172839164e-02,6.554805265670826664e-02,7.618852738558079540e-02,8.682900211445331029e-02,9.746947684332582518e-02,1.081099515721983539e-01,1.053816247186412924e-01,9.740126867198689586e-02,8.942091262533249929e-02,8.144055657867811659e-02,7.386944956005729590e-02,7.120933087783916371e-02,6.854921219562103152e-02,6.588909351340289933e-02,6.322897483118476714e-02,6.636655071277539064e-02,7.700702544164790553e-02,8.764750017052042041e-02,9.828797489939294918e-02,1.089284496282654641e-01,1.068822044880976679e-01,1.015619671236614036e-01,9.624172975922515305e-02,9.092149239478888867e-02,8.519200600231906229e-02,7.721164995566467959e-02,6.923129390901028302e-02,6.125093786235590032e-02,5.327058181570151069e-02,5.211104290293977481e-02,5.743128026737603226e-02,6.275151763181228970e-02,6.807175499624855408e-02,7.339199236068480459e-02,6.943591842302707096e-02,6.411568105859079270e-02,5.879544369415454913e-02,5.347520632971831944e-02,4.876884250733237031e-02,4.610872382511423118e-02,4.344860514289611286e-02,4.078848646067799455e-02,3.812836777845985542e-02,4.174340085942299799e-02,4.972375690607735294e-02,5.770411295273171481e-02,6.568446899938612527e-02,7.366482504604054959e-02,7.155037173453379640e-02,6.889025305231566421e-02,6.623013437009753202e-02,6.357001568787938595e-02,6.500238728599687377e-02,7.564286201486934702e-02,8.628333674374191742e-02,9.692381147261447394e-02,1.075642862014869472e-01,1.022440488370507106e-01,8.894345542596000798e-02,7.564286201486930539e-02,6.234226860377870688e-02,4.958734056339947349e-02,5.756769661005389088e-02,6.554805265670832215e-02,7.352840870336266321e-02,8.150876475001703203e-02,8.744287565650364635e-02,9.010299433872179242e-02,9.276311302093991074e-02,9.542323170315802905e-02,9.808335038537616124e-02,9.085328422344990384e-02,8.021280949457743059e-02,6.957233476570495734e-02,5.893186003683230367e-02,5.020121410544987894e-02,5.818157015210423388e-02,6.616192619875858882e-02,7.414228224541294376e-02,8.212263829206742360e-02,8.764750017052043429e-02,9.030761885273855261e-02,9.296773753495671255e-02,9.562785621717483087e-02,9.828797489939294918e-02,2.580997203464970857e-01,4.522883841484197642e-01,6.464770479503456624e-01,8.406657117522683409e-01,9.651456244458089806e-01,7.709569606438830824e-01,5.767682968419605150e-01,3.825796330400377254e-01,1.883909692381150469e-01,9.160357410817823731e-02,7.830298069708742370e-02,6.500238728599683213e-02,5.170179387490623363e-02,3.840120046381542002e-02,4.419889502762435612e-02,5.217925107427871800e-02,6.015960712093307294e-02,6.813996316758742788e-02,7.066366550712765982e-02,5.736307209603706825e-02,4.406247868494647668e-02,3.076188527385566307e-02,1.746129186276507150e-02,1.725666734874840152e-02,2.523702339540275646e-02,3.321737944205711140e-02,4.119773548871159818e-02,4.917809153536595312e-02,7.011800013641630858e-02,9.139894959416161591e-02,1.126798990519065624e-01,1.339608485096515089e-01,1.419412045563058500e-01,1.233203737807790357e-01,1.046995430052518883e-01,8.607871222972507397e-02,6.745788145419823190e-02,6.725325694018151335e-02,7.523361298683586829e-02,8.321396903349023710e-02,9.119432508014457817e-02,9.794693404269839976e-02,8.198622194938942620e-02,6.602550985608071632e-02,5.006479776277199256e-02,3.410408566946301900e-02,3.014801173180556293e-02,4.344860514289615450e-02,5.674919855398675300e-02,7.004979196507735151e-02,8.335038537616815124e-02,7.209603710524514764e-02,5.347520632971831250e-02,3.485437555419117900e-02,1.623354477866434387e-02,3.069367710251766617e-03,2.701043585021483534e-02,5.095150399017790016e-02,7.489257213014136050e-02,9.883364027010443920e-02,1.059272900893526992e-01,9.528681536048005940e-02,8.464634063160775268e-02,7.400586590273511289e-02,6.336539117386245923e-02,5.272491644499015945e-02,4.208444171611750578e-02,3.144396698724485906e-02,2.080349225837255928e-02,1.616533660732577538e-02,3.478616738285229826e-02,5.340699815837943870e-02,7.202782893390657915e-02,9.064865970943310203e-02,9.726485232930902336e-02,9.460473364709094668e-02,9.194461496487278673e-02,8.928449628265462679e-02,8.662437760043655011e-02,7.905327058181566002e-02,7.107291453516118018e-02,6.309255848850695014e-02,5.511220244185247030e-02,5.538503512720867328e-02,7.666598458495327284e-02,9.794693404269856629e-02,1.192278835004431659e-01,1.405088329581884732e-01,1.396221267307821146e-01,1.263215333196917589e-01,1.130209399086009314e-01,9.972034649751056190e-02,8.641975308641974829e-02
9.589041095890410427e-02,7.522894119427836479e-02,5.456747142965261144e-02,3.390600166502686502e-02,1.324453190040111861e-02,9.536062968288808173e-03,3.610080980852191368e-02,6.266555664875501919e-02,8.923030348898811082e-02,1.157950503292212163e-01,1.148111708166199840e-01,1.030046166654052797e-01,9.119806251419056153e-02,7.939150836297584335e-02,6.758495421176113904e-02,5.577840006054642086e-02,4.397184590933171655e-02,3.216529175811699837e-02,2.035873760690228712e-02,2.270491182925907236e-02,4.336638159388481878e-02,6.402785135851056519e-02,8.468932112313630467e-02,1.053507908877620580e-01,1.072428668735336266e-01,1.042912283357299574e-01,1.013395897979262744e-01,9.838795126012260528e-02,9.452811624914855826e-02,8.567320063573752309e-02,7.681828502232648792e-02,6.796336940891545275e-02,5.910845379550441758e-02,6.690380685688337992e-02,9.051691515931281629e-02,1.141300234617422388e-01,1.377431317641716613e-01,1.613562400666010976e-01,1.515174449405888024e-01,1.367592522515703457e-01,1.220010595625520139e-01,1.072428668735336821e-01,9.725270566865965027e-02,1.031559827442670302e-01,1.090592598198743685e-01,1.149625368954816929e-01,1.208658139710890866e-01,1.250283811397865930e-01,1.279800196775902621e-01,1.309316582153939035e-01,1.338832967531976004e-01,1.368349352910012973e-01,1.425868462877469267e-01,1.484901233633542372e-01,1.543934004389616310e-01,1.602966775145689970e-01,1.634753651706652433e-01,1.605237266328615742e-01,1.575720880950578773e-01,1.546204495572541804e-01,1.516688110194505390e-01,1.349428593052297565e-01,1.113297510028002368e-01,8.771664270037071720e-02,6.410353439794137798e-02,4.170135472640575103e-02,6.531446302883527066e-02,8.892757133126479030e-02,1.125406796336941156e-01,1.361537879361234271e-01,1.450087035495345178e-01,1.302505108605160611e-01,1.154923181714977432e-01,1.007341254824793975e-01,8.597593279346095463e-02,7.560735639143262299e-02,6.675244077802162945e-02,5.789752516461062898e-02,4.904260955119948279e-02,4.200408688412931441e-02,5.085900249754031488e-02,5.971391811095130842e-02,6.856883372436231583e-02,7.742374933777346202e-02,8.355407553167334966e-02,8.650571406947701880e-02,8.945735260728072957e-02,9.240899114508439871e-02,9.536062968288806785e-02,2.557329902368875030e-01,4.505411337319294995e-01,6.453492772269746602e-01,8.401574207220166013e-01,9.650344357829414577e-01,7.702262922878961859e-01,5.754181487928542449e-01,3.806100052978123038e-01,1.858018618027703628e-01,8.476500416256728399e-02,6.410353439794128083e-02,4.344206463331562462e-02,2.278059486868996841e-02,2.119125104063965259e-03,7.946719140240728410e-03,1.680163475365172715e-02,2.565655036706272416e-02,3.451146598047372116e-02,4.260955119957621218e-02,4.851282827518354351e-02,5.441610535079087485e-02,6.031938242639830333e-02,6.622265950200563467e-02,6.486036479225003315e-02,5.895708771664270875e-02,5.305381064103537048e-02,4.715053356542794893e-02,4.124725648982061066e-02,5.835162340119576241e-02,7.606145462801805479e-02,9.377128585484004186e-02,1.114811170816620428e-01,1.203360326950730363e-01,1.114811170816620428e-01,1.026262014682508966e-01,9.377128585483990308e-02,8.491637024142889567e-02,8.219178082191780366e-02,8.219178082191780366e-02,8.219178082191780366e-02,8.219178082191780366e-02,8.173768258533266329e-02,7.288276697192153097e-02,6.402785135851052356e-02,5.517293574509953002e-02,4.631802013168838383e-02,3.867403314917122747e-02,3.277075607356389614e-02,2.686747899795656480e-02,2.096420192234923000e-02,1.506092484674180151e-02,3.413305078331953929e-02,6.069779762355253377e-02,8.726254446378596541e-02,1.138272913040189599e-01,1.347158101869370406e-01,1.170059789601150535e-01,9.929614773329305255e-02,8.158631650647076017e-02,6.387648527964877310e-02,5.479452054794520244e-02,5.479452054794520244e-02,5.479452054794520244e-02,5.479452054794520244e-02,5.479452054794520244e-02,5.229698024672672224e-02,4.934534170892300453e-02,4.639370317111929376e-02,4.344206463331567319e-02,4.472867630364055908e-02,6.243850753046226165e-02,8.014833875728455403e-02,9.785816998410684642e-02,1.155680012109285421e-01,1.232876712328767055e-01,1.232876712328767055e-01,1.232876712328767055e-01,1.232876712328767055e-01,1.232876712328767055e-01,1.178384923938545076e-01,1.119352153182470722e-01,1.060319382426398449e-01,1.001286611670324234e-01,9.422538409142498794e-02,8.832210701581774681e-02,8.241882994021032527e-02,7.651555286460308414e-02,7.061227578899566260e-02,7.606145462801805479e-02,8.786800877923252318e-02,9.967456293044738014e-02,1.114811170816618485e-01,1.232876712328767055e-01
1.162790697674418589e-02,3.417705255043042289e-02,5.672619812411665990e-02,7.927534369780289691e-02,1.018244892714891270e-01,1.108826930489528462e-01,9.584992933316201225e-02,8.081716561737119220e-02,6.578440190158035827e-02,5.075163818578953823e-02,4.651162790697674354e-02,4.651162790697674354e-02,4.651162790697674354e-02,4.651162790697674354e-02,4.631890016703070490e-02,4.381343954773223720e-02,4.130797892843376257e-02,3.880251830913529487e-02,3.629705768983682024e-02,4.143646408839779527e-02,5.646922780418862919e-02,7.150199151997946312e-02,8.653475523577028317e-02,1.015675189515611032e-01,1.046511627906976799e-01,1.046511627906976799e-01,1.046511627906976799e-01,1.046511627906976799e-01,1.038802518309135253e-01,9.886933059231658993e-02,9.385840935371964067e-02,8.884748811512270528e-02,8.383656687652576989e-02,7.882564563792882062e-02,7.381472439933187135e-02,6.880380316073493596e-02,6.379288192213798669e-02,5.878196068354105130e-02,6.687652576127457726e-02,7.689836823846851743e-02,8.692021071566236046e-02,9.694205319285620348e-02,1.000256970319927941e-01,7.998201207760494147e-02,5.993832712321725542e-02,3.989464216882956937e-02,1.985095721444171679e-02,1.901580367467563953e-02,3.154310677116794331e-02,4.407040986766024709e-02,5.659771296415265496e-02,6.912501606064505588e-02,6.976744186046511531e-02,6.976744186046511531e-02,6.976744186046511531e-02,6.976744186046511531e-02,6.976744186046511531e-02,6.976744186046511531e-02,6.976744186046511531e-02,6.976744186046511531e-02,6.976744186046511531e-02,7.143774893999742248e-02,7.394320955929591099e-02,7.644867017859438563e-02,7.895413079789284638e-02,8.120262109726329725e-02,7.368623923936784559e-02,6.616985738147240781e-02,5.865347552357701166e-02,5.113709366568162940e-02,4.843890530643711612e-02,5.344982654503407926e-02,5.846074778363100077e-02,6.347166902222792229e-02,6.848259026082488543e-02,6.417833740203002235e-02,5.666195554413464008e-02,4.914557368623925782e-02,4.162919182834375065e-02,3.411280997044836838e-02,2.659642811255298611e-02,1.908004625465760384e-02,1.156366439676222158e-02,4.047282538866714408e-03,1.156366439676222158e-02,3.661827058974682914e-02,6.167287678273184609e-02,8.672748297571646059e-02,1.117820891687010681e-01,2.725170242836948420e-01,4.629320313503778594e-01,6.533470384170639855e-01,8.437620454837470030e-01,9.644738532699477229e-01,7.665424643453661036e-01,5.686110754207875928e-01,3.706796864962093041e-01,1.727482975716309044e-01,7.599897211872035097e-02,6.597712964152634141e-02,5.595528716433249838e-02,4.593344468713865536e-02,3.591160220994464580e-02,4.837466272645519344e-02,6.340742644224596491e-02,7.844019015803672945e-02,9.347295387382749399e-02,1.040087369908775372e-01,1.015032763715790765e-01,9.899781575228061570e-02,9.649235513298211331e-02,9.398689451368365255e-02,8.839779005524860123e-02,8.088140819735321896e-02,7.336502633945783669e-02,6.584864448156232952e-02,5.833226262366694725e-02,5.325709880508801980e-02,4.824617756649101502e-02,4.323525632789409351e-02,3.822433508929717200e-02,3.655402800976486483e-02,4.156494924836178634e-02,4.657587048695879112e-02,5.158679172555571263e-02,5.659771296415263414e-02,6.334318386226399367e-02,7.085956572015937593e-02,7.837594757805475820e-02,8.589232943595014047e-02,9.212385969420540388e-02,7.458563535911588716e-02,5.704741102402666880e-02,3.950918668893744351e-02,2.197096235384791985e-02,1.471155081588081982e-02,2.222793267377620036e-02,2.974431453167158262e-02,3.726069638956696489e-02,4.477707824746247206e-02,4.651162790697674354e-02,4.651162790697674354e-02,4.651162790697674354e-02,4.651162790697674354e-02,4.715405370679687930e-02,5.216497494539380081e-02,5.717589618399072232e-02,6.218681742258772710e-02,6.719773866118464167e-02,6.610561480149043656e-02,5.858923294359492939e-02,5.107285108569967202e-02,4.355646922780416486e-02,3.604008736990865769e-02,4.972375690607726273e-02,6.726198124116677945e-02,8.480020557625629618e-02,1.023384299113452300e-01,1.162790697674418589e-01,1.162790697674418589e-01,1.162790697674418589e-01,1.162790697674418589e-01,1.162790697674418589e-01,1.077990492098161446e-01,9.276628549402562984e-02,7.773352177823461551e-02,6.270075806244360117e-02,4.766799434665308643e-02,5.576255942438652219e-02,6.578440190158052481e-02,7.580624437877420130e-02,8.582808685596821086e-02,8.948991391494257042e-02,7.696261081845047480e-02,6.443530772195796286e-02,5.190800462546586030e-02,3.938070152897335530e-02,4.130797892843392910e-02,5.132982140562761253e-02,6.135166388282162209e-02,7.137350636001529858e-02,8.139534883720930813e-02
5.405405405405405705e-02,5.405405405405405705e-02,5.405405405405405705e-02,5.405405405405405705e-02,5.405405405405405705e-02,5.614454233238763692e-02,6.196804539345976415e-02,6.779154845453189138e-02,7.361505151560400473e-02,7.943855457667613196e-02,7.480961624608033211e-02,6.607436165447215515e-02,5.733910706286397124e-02,4.860385247125578734e-02,4.210840674929073463e-02,6.249066746304315911e-02,8.287292817679559054e-02,1.032551888905480220e-01,1.236374496043004534e-01,1.351351351351351426e-01,1.351351351351351426e-01,1.351351351351351426e-01,1.351351351351351426e-01,1.351351351351351426e-01,1.212483201433477709e-01,1.037778109601313892e-01,8.630730177691503524e-02,6.883679259369866743e-02,5.584590114976856201e-02,6.749290727191280259e-02,7.913991339405705705e-02,9.078691951620129763e-02,1.024339256383455521e-01,1.006420785426310194e-01,8.608332088995071518e-02,7.152456323727041099e-02,5.696580558459010679e-02,4.240704793190980260e-02,5.069434074958938108e-02,6.234134687173367717e-02,7.398835299387787612e-02,8.563535911602207507e-02,9.392265193370165355e-02,9.101090040316558993e-02,8.809914887262954020e-02,8.518739734209349046e-02,8.227564581155741297e-02,7.592952068090184914e-02,6.719426608929371381e-02,5.845901149768556460e-02,4.972375690607733906e-02,4.098850231446912046e-02,5.435269523667315972e-02,6.891145288935340840e-02,8.347021054203376811e-02,9.802896819471412782e-02,1.063162610123936092e-01,1.004927579513215097e-01,9.466925489024936857e-02,8.884575182917721359e-02,8.302224876810511411e-02,7.913991339405705705e-02,7.622816186352097956e-02,7.331641033298490207e-02,7.040465880244885233e-02,6.771688815887709489e-02,7.354039121994924988e-02,7.936389428102139099e-02,8.518739734209349046e-02,9.101090040316558993e-02,8.899507242048676492e-02,7.443631476780640521e-02,5.987755711512615653e-02,4.531879946244590784e-02,3.076004180976554814e-02,4.218306704494562132e-02,6.256532775869796947e-02,8.294758847245031763e-02,1.033298491862029850e-01,1.225175451694789364e-01,1.312527997610870856e-01,1.399880543526952348e-01,1.487233089443033840e-01,1.574585635359116720e-01,1.621621621621621712e-01,1.621621621621621712e-01,1.621621621621621712e-01,1.621621621621621712e-01,1.621621621621621712e-01,3.102881887412270445e-01,4.908167836344620727e-01,6.713453785277000430e-01,8.518739734209351822e-01,9.628938330595793182e-01,7.561594743915164285e-01,5.494251157234569805e-01,3.426907570553975324e-01,1.359563983873380844e-01,3.583694191429003667e-02,2.710168732268174174e-02,1.836643273107359600e-02,9.631178139465450261e-03,8.959235478571553335e-04,2.351799313125297122e-02,4.972375690607741539e-02,7.592952068090184914e-02,1.021352844557262968e-01,1.171420038823352688e-01,9.967149469911897042e-02,8.220098551590268587e-02,6.473047633268609602e-02,4.725996714946979760e-02,3.695684634911153288e-02,3.113334328803943341e-02,2.530984022696733393e-02,1.948633716589513731e-02,1.366283410482304131e-02,2.486187845303865912e-02,3.650888457518304542e-02,4.815589069732724437e-02,5.980289681947144331e-02,7.047931909810362106e-02,7.921457368971177027e-02,8.794982828132005825e-02,9.668508287292820746e-02,1.054203374645363567e-01,1.060922801254292752e-01,1.031805285948932255e-01,1.002687770643571757e-01,9.735702553382112601e-02,9.429595341197555269e-02,8.847245035090335608e-02,8.264894728983125660e-02,7.682544422875915713e-02,7.100194116768696051e-02,6.517843810661486104e-02,5.935493504554276156e-02,5.353143198447066903e-02,4.770792892339856955e-02,4.188442586232637987e-02,4.725996714946994331e-02,5.599522174107808559e-02,6.473047633268638745e-02,7.346573092429453666e-02,8.369419142899812980e-02,1.040764521427504780e-01,1.244587128565028122e-01,1.448409735702554935e-01,1.652232342840078416e-01,1.685829475884724760e-01,1.540241899357919775e-01,1.394654322831119786e-01,1.249066746304314940e-01,1.103479169777510094e-01,9.825294908167842012e-02,8.660594295953402688e-02,7.495893683738964752e-02,6.331193071524564286e-02,5.524861878453046077e-02,6.107212184560246310e-02,6.689562490667465278e-02,7.271912796774684939e-02,7.854263102881885172e-02,8.108108108108108558e-02,8.108108108108108558e-02,8.108108108108108558e-02,8.108108108108108558e-02,8.108108108108108558e-02,8.108108108108108558e-02,8.108108108108108558e-02,8.108108108108108558e-02,8.108108108108108558e-02,7.943855457667600706e-02,7.361505151560400473e-02,6.779154845453180811e-02,6.196804539345980578e-02,5.614454233238761610e-02,5.405405405405405705e-02,5.405405405405405705e-02,5.405405405405405705e-02,5.405405405405405705e-02,5.405405405405405705e-02
