6.132075471698113234e-02,6.898259147294902305e-02,7.664442822891691376e-02,8.430626498488480447e-02,8.766809131658501175e-02,8.128322735327843385e-02,7.489836338997185594e-02,6.851349942666527804e-02,6.916501615761491695e-02,7.427290732826018205e-02,7.938079849890544715e-02,8.448868966955069837e-02,8.959658084019596347e-02,9.470447201084122857e-02,9.981236318148649367e-02,1.040602522672782332e-01,1.053372250599395460e-01,1.066141978526008588e-01,1.078911706452621716e-01,1.112008756384863933e-01,1.163087668091316584e-01,1.214166579797769097e-01,1.265245491504221609e-01,1.348379026373397183e-01,1.437767121859689079e-01,1.527155217345980975e-01,1.611070572292296332e-01,1.662149483998748845e-01,1.713228395705201357e-01,1.764307307411654147e-01,1.792452830188679125e-01,1.792452830188679125e-01,1.792452830188679125e-01,1.792452830188679125e-01,1.802095277806733953e-01,1.814865005733347081e-01,1.827634733659960209e-01,1.852913582820805427e-01,2.069998957573229437e-01,2.287084332325653446e-01,2.504169707078077733e-01,2.674345877202126132e-01,2.763733972688418028e-01,2.853122068174710479e-01,2.942510163661002376e-01,2.954498071510476276e-01,2.928958615657250020e-01,2.903419159804023764e-01,2.877879703950797508e-01,2.702230793286771737e-01,2.523454602314188500e-01,2.344678411341604152e-01,2.165902220369019804e-01,1.987126029396436289e-01,1.808349838423851663e-01,1.629573647451267315e-01,1.564161367663921554e-01,1.576931095590534682e-01,1.589700823517147810e-01,1.602470551443760938e-01,1.546440112582091186e-01,1.482591472949026101e-01,1.418742833315960183e-01,1.352288126759095821e-01,1.275669759199416775e-01,1.199051391639737590e-01,1.122433024080058545e-01,1.280360679662253809e-01,1.663452517460644042e-01,2.046544355259039549e-01,2.429636193057434779e-01,4.157458563535900709e-01,6.187845303867396396e-01,8.218232044198892083e-01,9.693526529761316013e-01,7.190659856145131812e-01,4.687793182528948721e-01,2.184926508912765630e-01,6.671531324924433182e-02,4.628374856666324366e-02,2.585218388408216245e-02,5.420619201501344908e-03,2.157823412905213872e-02,5.094860836026245815e-02,8.031898259147277064e-02,1.086469300531637538e-01,1.124778484311477061e-01,1.163087668091316029e-01,1.201396851871155691e-01,1.284009173355570299e-01,1.450015636401541519e-01,1.616022099447512739e-01,1.782028562493483959e-01,1.856301469821744488e-01,1.881840925674971021e-01,1.907380381528197555e-01,1.932919837381423811e-01,2.031950380485770258e-01,2.134108203898675837e-01,2.236266027311581139e-01,2.307932867716043224e-01,2.295163139789430096e-01,2.282393411862816690e-01,2.269623683936203562e-01,2.322526842489314458e-01,2.424684665902220038e-01,2.526842489315124229e-01,2.629000312728029254e-01,2.663921609506931798e-01,2.689461065360158054e-01,2.715000521213384310e-01,2.756958198686541572e-01,2.871885750026058615e-01,2.986813301365577322e-01,3.101740852705096030e-01,3.197904722193264937e-01,3.274523089752944260e-01,3.351141457312623029e-01,3.427759824872302352e-01,3.504378192431980010e-01,3.580996559991660444e-01,3.657614927551338102e-01,3.712081726258733561e-01,3.571614719065986376e-01,3.431147711873243633e-01,3.290680704680496449e-01,3.197122902116126819e-01,3.171583446262900008e-01,3.146043990409673752e-01,3.120504534556448051e-01,3.085843844469925989e-01,3.047534660690087160e-01,3.009225476910247221e-01,2.971958719899926993e-01,2.984728447826540121e-01,2.997498175753153249e-01,3.010267903679765822e-01,3.018867924528301772e-01,3.018867924528301772e-01,3.018867924528301772e-01,3.018867924528301772e-01,3.051183154383403373e-01,3.102262066089856440e-01,3.153340977796308398e-01,3.204419889502762020e-01,3.219535077660793942e-01,3.232304805587407071e-01,3.245074533514020199e-01,3.229698738663611124e-01,3.127540915250704434e-01,3.025383091837800520e-01,2.923225268424893830e-01,2.870322109871781824e-01,2.857552381945168141e-01,2.844782654018555013e-01,2.832012926091942440e-01,2.731679349525696909e-01,2.616751798186179867e-01,2.501824246846659494e-01,2.420254352131761266e-01,2.509642447618054550e-01,2.599030543104345892e-01,2.688418638590636678e-01,2.723861148754300188e-01,2.698321692901073932e-01,2.672782237047847675e-01,2.647242781194621419e-01,2.681121651204001477e-01,2.732200562910455099e-01,2.783279474616907057e-01,2.824976545397686056e-01,2.761127905764620971e-01,2.697279266131554776e-01,2.633430626498489691e-01,2.604242676951943336e-01,2.629782132805170147e-01,2.655321588658395848e-01,2.680861044511622659e-01,2.626654852496613790e-01,2.537266757010320228e-01,2.447878661524029442e-01,2.358490566037735880e-01
5.502958579881657153e-01,5.518977410180130327e-01,5.534996240478603502e-01,5.551015070777076676e-01,5.522900389028735368e-01,5.394749746640948862e-01,5.266599104253163466e-01,5.138448461865376959e-01,5.078949949328189772e-01,5.062931119029716598e-01,5.046912288731243423e-01,5.030893458432770249e-01,4.897185262676125861e-01,4.753015789989866180e-01,4.608846317303606499e-01,4.522213867730229819e-01,4.634345679819543151e-01,4.746477491908855928e-01,4.858609303998169260e-01,4.894243028539671525e-01,4.862205367942724621e-01,4.830167707345778272e-01,4.798130046748831368e-01,4.846513452548301681e-01,4.910588773742194935e-01,4.974664094936088188e-01,5.018143777174801645e-01,4.938049625682435217e-01,4.857955474190068790e-01,4.777861322697701807e-01,4.748112066429108213e-01,4.780149727026054562e-01,4.812187387623001467e-01,4.844225048219948371e-01,4.767400045768087069e-01,4.655268233678773737e-01,4.543136421589460405e-01,4.447677269606720163e-01,4.607865572591453573e-01,4.768053875576186984e-01,4.928242178560920395e-01,5.047239203635293103e-01,5.095295694530713737e-01,5.143352185426133261e-01,5.191408676321552784e-01,5.099218673379319888e-01,4.939030370394586478e-01,4.778842067409854177e-01,4.618653764425121322e-01,4.332930138285005506e-01,4.044591192912486699e-01,3.756252247539966782e-01,3.481643728137566174e-01,3.241361273660468001e-01,3.001078819183368163e-01,2.760796364706268324e-01,2.672202425708588014e-01,2.688221256007061188e-01,2.704240086305534918e-01,2.720258916604008093e-01,2.664356468011376822e-01,2.600281146817484124e-01,2.536205825623590870e-01,2.413285821700613953e-01,2.060871555134200506e-01,1.708457288567787336e-01,1.356043022001373610e-01,1.959854849782601272e-01,3.481643728137548965e-01,5.003432606492514978e-01,6.525221484847483211e-01,7.510869920559674062e-01,8.375886756677234368e-01,9.240903592794794674e-01,9.668508287292851833e-01,6.961325966850857583e-01,4.254143646408863333e-01,1.546961325966869083e-01,2.196868155219171975e-02,7.322893850730639864e-02,1.244891954624210845e-01,1.757494524175350903e-01,1.987642616626890679e-01,2.115793259014677463e-01,2.243943901402463970e-01,2.373402203406452526e-01,2.533590506391186215e-01,2.693778809375917405e-01,2.853967112360650815e-01,2.953022328287946974e-01,2.937003497989473244e-01,2.920984667691000070e-01,2.904965837392526895e-01,3.014482330249433351e-01,3.190689463532639936e-01,3.366896596815846521e-01,3.543103730099053661e-01,3.550295857988165493e-01,3.550295857988165493e-01,3.550295857988165493e-01,3.558795645493477156e-01,3.590833306090424060e-01,3.622870966687370964e-01,3.654908627284317313e-01,3.686946287881264217e-01,3.718983948478211121e-01,3.751021609075156915e-01,3.783059269672103819e-01,3.786982248520709970e-01,3.786982248520709970e-01,3.786982248520709970e-01,3.822289058158160335e-01,4.014515021739837874e-01,4.206740985321518189e-01,4.398966948903197949e-01,4.497041420118343402e-01,4.497041420118343402e-01,4.497041420118343402e-01,4.497041420118343402e-01,4.407793651312565397e-01,4.295661839223250400e-01,4.183530027133938178e-01,4.068129066004122496e-01,3.923959593317860595e-01,3.779790120631602024e-01,3.635620647945340123e-01,3.524142665664128371e-01,3.460067344470234563e-01,3.395992023276341865e-01,3.331916702082449722e-01,3.290725424172088465e-01,3.258687763575142116e-01,3.226650102978195211e-01,3.196900846709600508e-01,3.276994998201968046e-01,3.357089149694333918e-01,3.437183301186699236e-01,3.491124260355029651e-01,3.491124260355029651e-01,3.491124260355029651e-01,3.491124260355029651e-01,3.531661708457287108e-01,3.595737029651181471e-01,3.659812350845073614e-01,3.723887672038967978e-01,3.667658308542287582e-01,3.603582987348393774e-01,3.539507666154501075e-01,3.510739154598055967e-01,3.590833306090424060e-01,3.670927457582789377e-01,3.751021609075156915e-01,3.698715224427084336e-01,3.538526921442348705e-01,3.378338618457618070e-01,3.218150315472886325e-01,3.154074994278989741e-01,3.106018503383570217e-01,3.057962012488149584e-01,3.025597436987151334e-01,3.073653927882571968e-01,3.121710418777991491e-01,3.169766909673411015e-01,3.217823400568831649e-01,3.265879891464251172e-01,3.313936382359671806e-01,3.361992873255090775e-01,3.397626597796592485e-01,3.429664258393539944e-01,3.461701918990486293e-01,3.487201281506424611e-01,3.439144790611005087e-01,3.391088299715584453e-01,3.343031808820164930e-01,3.338455000163456088e-01,3.402530321357349896e-01,3.466605642551242594e-01,3.530680963745136403e-01,3.583641178201313338e-01,3.631697669096733971e-01,3.679754159992153495e-01,3.727810650887574129e-01
2.464788732394366244e-01,2.541047389308225268e-01,2.617306046222084293e-01,2.693564703135942762e-01,2.723134386429071907e-01,2.646875729515212883e-01,2.570617072601354414e-01,2.494358415687495389e-01,2.523149949420278593e-01,2.618473270562602373e-01,2.713796591704925598e-01,2.809119912847249378e-01,2.641817757372967312e-01,2.451171115088320307e-01,2.260524472803673302e-01,2.099836588592327302e-01,2.042642595906933312e-01,1.985448603221539321e-01,1.928254610536145053e-01,1.931756283557699572e-01,1.988950276243093840e-01,2.046144268928487830e-01,2.103338261613882099e-01,2.160532254299276089e-01,2.217726246984670357e-01,2.274920239670064348e-01,2.329390708894249484e-01,2.367520037351178719e-01,2.405649365808108231e-01,2.443778694265037743e-01,2.439109796902964866e-01,2.381915804217570876e-01,2.324721811532176607e-01,2.267527818846782339e-01,2.311104194226129838e-01,2.387362851139988862e-01,2.463621508053847886e-01,2.538712940627187997e-01,2.595906933312582265e-01,2.653100925997976534e-01,2.710294918683371357e-01,2.872539102015405632e-01,3.215703058127771241e-01,3.558867014240136850e-01,3.902030970352500239e-01,4.065442378025056480e-01,4.141701034938914949e-01,4.217959691852773418e-01,4.294218348766632443e-01,4.183721111197572506e-01,4.069333125826784525e-01,3.954945140455995989e-01,3.775192592016186621e-01,3.432028635903823233e-01,3.088864679791457624e-01,2.745700723679092015e-01,2.594350634191891491e-01,2.575285969963426735e-01,2.556221305734962534e-01,2.537156641506497778e-01,2.432495525640027967e-01,2.318107540269241096e-01,2.203719554898452559e-01,2.143802038751846939e-01,2.296319352579564710e-01,2.448836666407282758e-01,2.601353980235000529e-01,2.491245817446113009e-01,2.129017197105287362e-01,1.766788576764457275e-01,1.404559956423627187e-01,3.252276087463997767e-01,5.597229787565161097e-01,7.942183487666325536e-01,9.932300988249949114e-01,9.379425725624470633e-01,8.826550462998993263e-01,8.273675200373515892e-01,7.034472025523316185e-01,4.880164967706799861e-01,2.725857909890282427e-01,5.715508520737944131e-02,3.501673021554694426e-02,8.267839078670881359e-02,1.303400513578706899e-01,1.766010427204108002e-01,1.899463076803361294e-01,2.032915726402612644e-01,2.166368376001865936e-01,2.293206754338182607e-01,2.407594739708971143e-01,2.521982725079759402e-01,2.636370710450547938e-01,2.688506730993696636e-01,2.707571395222161392e-01,2.726636059450626148e-01,2.745700723679090904e-01,2.892770990584389579e-01,3.045288304412107627e-01,3.197805618239825121e-01,3.289627266360595770e-01,3.213368609446736746e-01,3.137109952532877721e-01,3.060851295619018697e-01,3.115321764843201890e-01,3.267839078670919939e-01,3.420356392498635767e-01,3.572873706326353815e-01,3.574819080227220058e-01,3.555754415998755302e-01,3.536689751770289991e-01,3.545638471714262496e-01,3.679091121313514123e-01,3.812543770912767416e-01,3.945996420512020708e-01,3.986071122869816463e-01,3.928877130184422195e-01,3.871683137499027927e-01,3.814489144813633659e-01,3.893860399968872010e-01,4.008248385339662212e-01,4.122636370710449083e-01,4.202007625865696872e-01,3.973231655124116468e-01,3.744455684382542726e-01,3.515679713640962878e-01,3.380281690140845008e-01,3.380281690140845008e-01,3.380281690140845008e-01,3.380281690140845008e-01,3.312193603610614767e-01,3.216870282468292097e-01,3.121546961325967207e-01,3.027001789743989368e-01,2.969807797058594545e-01,2.912613804373201387e-01,2.855419811687807674e-01,2.829351801416232215e-01,2.867481129873161172e-01,2.905610458330090684e-01,2.943739786787019641e-01,2.957746478873239382e-01,2.957746478873239382e-01,2.957746478873239382e-01,2.957746478873239382e-01,2.993541358649131623e-01,3.031670687106061690e-01,3.069800015562990647e-01,3.093922651933702084e-01,3.074857987705236773e-01,3.055793323476772572e-01,3.036728659248307260e-01,3.028169014084506894e-01,3.028169014084506894e-01,3.028169014084506894e-01,3.028169014084506894e-01,2.962804451015486062e-01,2.886545794101628148e-01,2.810287137187768014e-01,2.755816667963582045e-01,2.813010660648976868e-01,2.870204653334370026e-01,2.927398646019763739e-01,2.904054159209401020e-01,2.789666173838614149e-01,2.675278188467823948e-01,2.560890203097037077e-01,2.638705159131581324e-01,2.772157808730836281e-01,2.905610458330087909e-01,3.018831219360361695e-01,2.904443233989574824e-01,2.790055248618784622e-01,2.675667263247997751e-01,2.679558011049718580e-01,2.870204653334368361e-01,3.060851295619013701e-01,3.251497937903663482e-01,3.323087697455450740e-01,3.342152361683915496e-01,3.361217025912380252e-01,3.380281690140845008e-01
2.731707317073170938e-01,2.731707317073170938e-01,2.731707317073170938e-01,2.731707317073170938e-01,2.739792480797736407e-01,2.766204015631316682e-01,2.792615550464896956e-01,2.819027085298477231e-01,2.821183128958361097e-01,2.807977361541570960e-01,2.794771594124781378e-01,2.781565826707991240e-01,2.780487804878049030e-01,2.780487804878049030e-01,2.780487804878049030e-01,2.768629564748686378e-01,2.715806495081525829e-01,2.662983425414364724e-01,2.610160355747204175e-01,2.606387279342406438e-01,2.646004581592777405e-01,2.685621883843147817e-01,2.725239186093518229e-01,2.665408974531734421e-01,2.586174370030993597e-01,2.506939765530252218e-01,2.452230157660692522e-01,2.544670529578223483e-01,2.637110901495755000e-01,2.729551273413286516e-01,2.744913084489961075e-01,2.665678479989220251e-01,2.586443875488478872e-01,2.507209270987737493e-01,2.587521897318419972e-01,2.719579571486321901e-01,2.851637245654224384e-01,2.976418272470017223e-01,2.989624039886807361e-01,3.002829807303597498e-01,3.016035574720388190e-01,3.072901226249830642e-01,3.204958900417733125e-01,3.337016574585635054e-01,3.469074248753536427e-01,3.547769842339307256e-01,3.600592912006467805e-01,3.653415981673628354e-01,3.706239051340789459e-01,3.590890715536990130e-01,3.472038808785878894e-01,3.353186902034767103e-01,3.207923460450075037e-01,2.996631181781432840e-01,2.785338903112789533e-01,2.574046624444145670e-01,2.456542244980461365e-01,2.403719175313300538e-01,2.350896105646139711e-01,2.298073035978978884e-01,2.280824686699905735e-01,2.267618919283115597e-01,2.254413151866325460e-01,2.230427166150115159e-01,2.164398329066163917e-01,2.098369491982212953e-01,2.032340654898261989e-01,2.141490365179894995e-01,2.418811480932485658e-01,2.696132596685080207e-01,2.973453712437674756e-01,4.565961460719569209e-01,6.454386201320569949e-01,8.342810941921570134e-01,9.791402775906233868e-01,8.087858779140295606e-01,6.384314782374358455e-01,4.680770785608420193e-01,3.277186363023856241e-01,2.273548039347799699e-01,1.269909715671743156e-01,2.662713919956999353e-02,3.201724834927863195e-02,7.559628082468634880e-02,1.191753133000940656e-01,1.610295108475946757e-01,1.623500875892736894e-01,1.636706643309527032e-01,1.649912410726317169e-01,1.718097291470150612e-01,1.889772267888423507e-01,2.061447244306696402e-01,2.233122220724969020e-01,2.240937878992050880e-01,2.161703274491309501e-01,2.082468669990568122e-01,2.003234065489827020e-01,2.101334052014552645e-01,2.206980191348874298e-01,2.312626330683195952e-01,2.369222476755155349e-01,2.289987872254413970e-01,2.210753267753672868e-01,2.131518663252931489e-01,2.142837892467321925e-01,2.222072496968063304e-01,2.301307101468803296e-01,2.380541705969544675e-01,2.390243902439024293e-01,2.390243902439024293e-01,2.390243902439024293e-01,2.382967255086915759e-01,2.343349952836545624e-01,2.303732650586174935e-01,2.264115348335804245e-01,2.282711224902303493e-01,2.361945829403044872e-01,2.441180433903785973e-01,2.520415038404527075e-01,2.473521088802049517e-01,2.394286484301307305e-01,2.315051879800567036e-01,2.241207384449535878e-01,2.214795849615955048e-01,2.188384314782374773e-01,2.161972779948793943e-01,2.097830481067243513e-01,1.978978574316130057e-01,1.860126667565019654e-01,1.741274760813909250e-01,1.726182455194717469e-01,1.752593990028297743e-01,1.779005524861878296e-01,1.804608543323002467e-01,1.791402775906212053e-01,1.778197008489421915e-01,1.764991241072632056e-01,1.781970084894218542e-01,1.861204689394958534e-01,1.940439293895701023e-01,2.019673898396441292e-01,2.015361811076675502e-01,1.962538741409514120e-01,1.909715671742353849e-01,1.856892602075192467e-01,1.952836544940033114e-01,2.058482684274356156e-01,2.164128823608676699e-01,2.224498046085435221e-01,2.145263441584693009e-01,2.066028837083952741e-01,1.986794232583210251e-01,2.009432691011991123e-01,2.115078830346314442e-01,2.220724969680634708e-01,2.326371109014955252e-01,2.228271122490231848e-01,2.096213448322331308e-01,1.964155774154427436e-01,1.875218973184204774e-01,2.007276647352108645e-01,2.139334321520009186e-01,2.271391995687909726e-01,2.310470287023312919e-01,2.244441449939362787e-01,2.178412612855410713e-01,2.112383775771460304e-01,2.138525805147552805e-01,2.191348874814714465e-01,2.244171944481874459e-01,2.285136774019674855e-01,2.192696402102144448e-01,2.100256030184611822e-01,2.007815658267081416e-01,1.946098908502897629e-01,1.932893141086107214e-01,1.919687373669317076e-01,1.906481606252526662e-01,1.984907694380808885e-01,2.103759601131922619e-01,2.222611507883033022e-01,2.341463414634146478e-01
2.894736842105263275e-01,2.823495202093632139e-01,2.752253562082000449e-01,2.681011922070369313e-01,2.675196277987786919e-01,2.817679558011049745e-01,2.960162838034312016e-01,3.102646118057574842e-01,3.092468740913056346e-01,2.985606280895609088e-01,2.878743820878162385e-01,2.771881360860715682e-01,2.894009886594940406e-01,3.036493166618203232e-01,3.178976446641465503e-01,3.249491131142774325e-01,3.071387031113695931e-01,2.893282931084618093e-01,2.715178831055539144e-01,2.726083163710380508e-01,2.904187263739458902e-01,3.082291363768537296e-01,3.260395463797615134e-01,3.214960744402443060e-01,3.125908694387903863e-01,3.036856644373364666e-01,2.970703692933991946e-01,3.041945332945623637e-01,3.113186972957254772e-01,3.184428612968885908e-01,3.167708636231462704e-01,3.043035766211108495e-01,2.918362896190753730e-01,2.793690026170398966e-01,2.749709217795870964e-01,2.731898807792963457e-01,2.714088397790055396e-01,2.707182320441988144e-01,2.867476010468158476e-01,3.027769700494329363e-01,3.188063390520500251e-01,3.354899680139574736e-01,3.533003780168653130e-01,3.711107880197731523e-01,3.889211980226809362e-01,4.127289909857515537e-01,4.394446059901133683e-01,4.661602209944749609e-01,4.928758359988367199e-01,4.620165745856354422e-01,4.299578365804014868e-01,3.978990985751673648e-01,3.683847048560628945e-01,3.452311718522828032e-01,3.220776388485026009e-01,2.989241058447223987e-01,2.799869148008143349e-01,2.639575457981972462e-01,2.479281767955801852e-01,2.318988077929631242e-01,2.334617621401570142e-01,2.370238441407385432e-01,2.405859261413201278e-01,2.426940971212562248e-01,2.391320151206746403e-01,2.355699331200930557e-01,2.320078511195114990e-01,2.275370747310264674e-01,2.221939517301541600e-01,2.168508287292817971e-01,2.115077057284094342e-01,3.849956382669369459e-01,5.987205583018311295e-01,8.124454783367255351e-01,9.921488804885149060e-01,9.280314044780466620e-01,8.639139284675783070e-01,7.997964524571100631e-01,6.746147135795299565e-01,4.680139575457988310e-01,2.614132015120677055e-01,5.481244547833918901e-02,5.495783658040052921e-02,1.297615585926135406e-01,2.045652806048265382e-01,2.761703983716197186e-01,2.726083163710381063e-01,2.690462343704566051e-01,2.654841523698749928e-01,2.625399825530677633e-01,2.607589415527769572e-01,2.589779005524862066e-01,2.571968595521954559e-01,2.670471067170687163e-01,2.830764757196857495e-01,2.991058447223028383e-01,3.151352137249198715e-01,3.123727827856935257e-01,3.088107007851119690e-01,3.052486187845304122e-01,3.064117476010466135e-01,3.206600756033728961e-01,3.349084036056991787e-01,3.491567316080254613e-01,3.532276824658331371e-01,3.496656004652515248e-01,3.461035184646700236e-01,3.425414364640884668e-01,3.592977609770279801e-01,3.788892119802266256e-01,3.984806629834252711e-01,4.134922942715906213e-01,4.081491712707183139e-01,4.028060482698459510e-01,3.974629252689736436e-01,4.025879616167488684e-01,4.186173306193659571e-01,4.346466996219830459e-01,4.506760686246001346e-01,4.383541727246296205e-01,4.187627217214306974e-01,3.991712707182323294e-01,3.808519918580984820e-01,3.737278278569352574e-01,3.666036638557721994e-01,3.594794998546089193e-01,3.443588252398957494e-01,3.176432102355336018e-01,2.909275952311721758e-01,2.642119802268107498e-01,2.693006687990693870e-01,2.871110788019770044e-01,3.049214888048850658e-01,3.220412910729865685e-01,3.060119220703693133e-01,2.899825530677524466e-01,2.739531840651355798e-01,2.683919744111659123e-01,2.844213434137827790e-01,3.004507124164000342e-01,3.164800814190169009e-01,3.178612968886305734e-01,3.107371328874673488e-01,3.036129688863042908e-01,2.964888048851410662e-01,3.111006106426283391e-01,3.271299796452456499e-01,3.431593486478625166e-01,3.539546379761560058e-01,3.486115149752835318e-01,3.432683919744112799e-01,3.379252689735388615e-01,3.325821459726665541e-01,3.272390229717941357e-01,3.218958999709218283e-01,3.165527769700495764e-01,3.203692933992439151e-01,3.257124164001161670e-01,3.310555394009886410e-01,3.343631869729573602e-01,3.272390229717941357e-01,3.201148589706310776e-01,3.129906949694680751e-01,3.150625181738876401e-01,3.275298051759230056e-01,3.399970921779586486e-01,3.524643791799939585e-01,3.469758650770575770e-01,3.362896190753127401e-01,3.256033730735681253e-01,3.163710380924686372e-01,3.234952020936316952e-01,3.306193660947949753e-01,3.377435300959580333e-01,3.407240476882815727e-01,3.371619656876999604e-01,3.335998836871184592e-01,3.300378016865368469e-01,3.351264902587960393e-01,3.440316952602500700e-01,3.529369002617038786e-01,3.618421052631579093e-01
1.798941798941798842e-01,1.755970650998275318e-01,1.712999503054751516e-01,1.670028355111227991e-01,1.627057207167704467e-01,1.584086059224180665e-01,1.541114911280657140e-01,1.498143763337133338e-01,1.507790347569352984e-01,1.550761495512876509e-01,1.593732643456400311e-01,1.636703791399923835e-01,1.587593908035896950e-01,1.530299044111198825e-01,1.473004180186500700e-01,1.451080125113274055e-01,1.551346136981495982e-01,1.651612148849717632e-01,1.751878160717939559e-01,1.753339764389488242e-01,1.667397468502440916e-01,1.581455172615393590e-01,1.495512876728346541e-01,1.529422081908269615e-01,1.586716945832967740e-01,1.644011809757665865e-01,1.689029202841357546e-01,1.660381770879008345e-01,1.631734338916659421e-01,1.603086906954310220e-01,1.619456868075652423e-01,1.691075447981524871e-01,1.762694027887397596e-01,1.834312607793270600e-01,1.786956648835102135e-01,1.701014352948054809e-01,1.615072057061007482e-01,1.552807740653042445e-01,1.853605776257708504e-01,2.154403811862374563e-01,2.455201847467040621e-01,2.661287965155368362e-01,2.704259113098891887e-01,2.747230261042415411e-01,2.790201408985938936e-01,2.919991815019438719e-01,3.091876406793533372e-01,3.263760998567626914e-01,3.435645590341722122e-01,3.172556929463007380e-01,2.900406325820692466e-01,2.628255722178375331e-01,2.397030021339413841e-01,2.268116577508843545e-01,2.139203133678272417e-01,2.010289689847701289e-01,1.872898944722150294e-01,1.729661784910404565e-01,1.586424625098658836e-01,1.443187465286913107e-01,1.338536642404045685e-01,1.238270630535825007e-01,1.138004618667602941e-01,1.069893887573445113e-01,1.127188751498143376e-01,1.184483615422841640e-01,1.241778479347539904e-01,1.335613435060948873e-01,1.464526878891518336e-01,1.593440322722089464e-01,1.722353766552660592e-01,3.570113128124166035e-01,5.804612821187398186e-01,8.039112514250632557e-01,9.714110321845157436e-01,7.379344616913703359e-01,5.044578911982247060e-01,2.709813207050791872e-01,1.216054254728289596e-01,8.436376392177508121e-02,4.712210237072118890e-02,9.880440819667796193e-03,2.525651144435640122e-02,5.963342979917537340e-02,9.401034815399435252e-02,1.277441608933320705e-01,1.463649916688590236e-01,1.649858224443857269e-01,1.836066532199126522e-01,1.917916337805841420e-01,1.803326609956444893e-01,1.688736882107048365e-01,1.574147154257651837e-01,1.655996959864360352e-01,1.842205267619629883e-01,2.028413575374899136e-01,2.214621883130168667e-01,2.181004998684556995e-01,2.138033850741033193e-01,2.095062702797509391e-01,2.105293928498346012e-01,2.262854804291266342e-01,2.420415680084186671e-01,2.577976555877106724e-01,2.620947703820631913e-01,2.577976555877108389e-01,2.535005407933585420e-01,2.492034259990061618e-01,2.662749568826914270e-01,2.863281592563358124e-01,3.063813616299802534e-01,3.216989681078079033e-01,3.159694817153381741e-01,3.102399953228683338e-01,3.045105089303984935e-01,3.114092782601067255e-01,3.314624806337511664e-01,3.515156830073955518e-01,3.715688853810399372e-01,3.597006635680671804e-01,3.396474611944225175e-01,3.195942588207784096e-01,2.992487357128246206e-01,2.763307901429450375e-01,2.534128445730660095e-01,2.304948990031863709e-01,2.163465754625975845e-01,2.149142038644800967e-01,2.134818322663626644e-01,2.120494606682452321e-01,2.024321085094566708e-01,1.895407641263997245e-01,1.766494197433424451e-01,1.641965564617496875e-01,1.727907860504545590e-01,1.813850156391591806e-01,1.899792452278638022e-01,1.934286298927183345e-01,1.862667719021311452e-01,1.791049139115437616e-01,1.719430559209565723e-01,1.792803063521291318e-01,1.950363939314213868e-01,2.107924815107131977e-01,2.265485690900054250e-01,2.167558244906313270e-01,2.052968517056915077e-01,1.938378789207519937e-01,1.879914642345578701e-01,1.994504370194976617e-01,2.109094098044371757e-01,2.223683825893769672e-01,2.211990996521385200e-01,2.097401268671987007e-01,1.982811540822591867e-01,1.868221812973197005e-01,1.937794147738897965e-01,2.038060159607118782e-01,2.138326171475342097e-01,2.203513695226404223e-01,2.088923967377006030e-01,1.974334239527611168e-01,1.859744511678216028e-01,1.839282060276534458e-01,1.925224356163580952e-01,2.011166652050629389e-01,2.097108947937675605e-01,2.038644801075742974e-01,1.938378789207519659e-01,1.838112777339298842e-01,1.758893858341370742e-01,1.916454734134288851e-01,2.074015609927211401e-01,2.231576485720129510e-01,2.289163670379142645e-01,2.188897658510919331e-01,2.088631646642698514e-01,1.988365634774475199e-01,1.927855242772370525e-01,1.884884094828846168e-01,1.841912946885323199e-01,1.798941798941798842e-01
1.616161616161616299e-01,1.506780512305374298e-01,1.397399408449132296e-01,1.288018304592890295e-01,1.237234220659634981e-01,1.319270048551816621e-01,1.401305876443997844e-01,1.483341704336179345e-01,1.456554495228528368e-01,1.360846029354316755e-01,1.265137563480104865e-01,1.169429097605893253e-01,1.299737708577487494e-01,1.450136726379820107e-01,1.600535744182152720e-01,1.695686143199955365e-01,1.599977677325743752e-01,1.504269211451532140e-01,1.408560745577320250e-01,1.341871756236397151e-01,1.300853842290306261e-01,1.259835928344215650e-01,1.218818014398125038e-01,1.280763435459567889e-01,1.362799263351749390e-01,1.444835091243930891e-01,1.511245047156649368e-01,1.483899771192588868e-01,1.456554495228528368e-01,1.429209219264467867e-01,1.450973826664434252e-01,1.533009654556615475e-01,1.615045482448796976e-01,1.697081310340978755e-01,1.665550532953848084e-01,1.597187343043696972e-01,1.528824153133545583e-01,1.479714269769516755e-01,1.725821753446061813e-01,1.971929237122606593e-01,2.218036720799151651e-01,2.378759975445058350e-01,2.392432613427088461e-01,2.406105251409118850e-01,2.419777889391148962e-01,2.507115352419219678e-01,2.630169094257491791e-01,2.753222836095763348e-01,2.876276577934036016e-01,2.557341369496066719e-01,2.229198057927342103e-01,1.901054746358615266e-01,1.666666666666666574e-01,1.666666666666666574e-01,1.666666666666666574e-01,1.666666666666666574e-01,1.585746972487304951e-01,1.449020592667002449e-01,1.312294212846699670e-01,1.175567833026396891e-01,1.247558457503208790e-01,1.343266923377419431e-01,1.438975389251631321e-01,1.478877169484905663e-01,1.301132875718512272e-01,1.123388581952118603e-01,9.456442881857249350e-02,1.165522629611027289e-01,1.767118700820351496e-01,2.368714772029683335e-01,2.970310843239015730e-01,4.609911267369820598e-01,6.483062670907968617e-01,8.356214074446115525e-01,9.691947095262044565e-01,7.176181706568474095e-01,4.660416317874903624e-01,2.144650929181333154e-01,6.250348791785265146e-02,4.336179474301026654e-02,2.422010156816788162e-02,5.078408393325753445e-03,2.209944751381185193e-02,5.217925107427845433e-02,8.225905463474504631e-02,1.116133712818795087e-01,1.239187454657067616e-01,1.362241196495338480e-01,1.485294938333611148e-01,1.551425860818126390e-01,1.510407946872035501e-01,1.469390032925944611e-01,1.428372118979854000e-01,1.458786762654164793e-01,1.527149952564316182e-01,1.595513142474467572e-01,1.663876332384618961e-01,1.614208382164183664e-01,1.559517830236062386e-01,1.504827278307941385e-01,1.508175679446395467e-01,1.672247335230758747e-01,1.836318991015122026e-01,2.000390646799485306e-01,2.031642390758413297e-01,1.963279200848261907e-01,1.894916010938111350e-01,1.826552821027960238e-01,1.926167754897035178e-01,2.049221496735307568e-01,2.172275238573579959e-01,2.267704671019588336e-01,2.240359395055528113e-01,2.213014119091467613e-01,2.185668843127407113e-01,2.252078799040123369e-01,2.416150454824486649e-01,2.580222110608849651e-01,2.744293766393213208e-01,2.636307829677998482e-01,2.458563535911602593e-01,2.280819242145211145e-01,2.117026619789051656e-01,2.076008705842960489e-01,2.034990791896870155e-01,1.993972877950778710e-01,1.891567609799656990e-01,1.700150678051230713e-01,1.508733746302809431e-01,1.317316814554388149e-01,1.360287962497906122e-01,1.497014342318207236e-01,1.633740722138511681e-01,1.764886433394722842e-01,1.628160053574418398e-01,1.491433673754117284e-01,1.354707293933816448e-01,1.249232658072437496e-01,1.208214744126347162e-01,1.167196830180255718e-01,1.126178916234165384e-01,1.171661365031528290e-01,1.267369830905741290e-01,1.363078296779952070e-01,1.458786762654165348e-01,1.387633238461969121e-01,1.305597410569786510e-01,1.223561582677605841e-01,1.191751771862265968e-01,1.314805513700540163e-01,1.437859255538810888e-01,1.560912997377085221e-01,1.555890395669403126e-01,1.446509291813159459e-01,1.337128187956918846e-01,1.227747084100677954e-01,1.294157040013392823e-01,1.389865505887603325e-01,1.485573971761816603e-01,1.543333891400192059e-01,1.406607511579887615e-01,1.269881131759586501e-01,1.133154751939285665e-01,1.105530442547016240e-01,1.201238908421226881e-01,1.296947374295440158e-01,1.392655840169650661e-01,1.318711981695410429e-01,1.195658239857136373e-01,1.072604498018865510e-01,9.729895641497837699e-02,1.137061219934144829e-01,1.301132875718510329e-01,1.465204531502871665e-01,1.512640214297676644e-01,1.375913834477371922e-01,1.239187454657071086e-01,1.102461074836766641e-01,1.174451699313574654e-01,1.338523355097940015e-01,1.502595010882301074e-01,1.666666666666666574e-01
3.188405797101449002e-01,3.011850428376971478e-01,2.835295059652493954e-01,2.658739690928016985e-01,2.608295299863880312e-01,2.843702458163183677e-01,3.079109616462487042e-01,3.314516774761790407e-01,3.285691408439426753e-01,3.089518776523340615e-01,2.893346144607254478e-01,2.697173512691168895e-01,2.897349667707582732e-01,3.132756826006886097e-01,3.368163984306189462e-01,3.493474257346464995e-01,3.238449835855553571e-01,2.983425414364641592e-01,2.728400992873729058e-01,2.702378092721594571e-01,2.878933461446072650e-01,3.055488830170549619e-01,3.232044198895027143e-01,3.129554007526623716e-01,2.972615901993754806e-01,2.815677796460886451e-01,2.717591480502842272e-01,2.972615901993753695e-01,3.227640323484665674e-01,3.482664744975577653e-01,3.517495395948434522e-01,3.282088237649132267e-01,3.046681079349828347e-01,2.811273921050524427e-01,2.679558011049724131e-01,2.581471695091681062e-01,2.483385379133637716e-01,2.406918087917365723e-01,2.661942509408278257e-01,2.916966930899190791e-01,3.171991352390103325e-01,3.398190407558650539e-01,3.574745776283128618e-01,3.751301145007606141e-01,3.927856513732083110e-01,4.236528144767394144e-01,4.609256145407958360e-01,4.981984146048520357e-01,5.354712146689084573e-01,4.958763712066620033e-01,4.546801185042840809e-01,4.134838658019058810e-01,3.829369845464008493e-01,3.790135319080791265e-01,3.750900792697574038e-01,3.711666266314356810e-01,3.533109136039717102e-01,3.258467451357195954e-01,2.983825766674674806e-01,2.709184081992154214e-01,2.874929938345744396e-01,3.090719833453436372e-01,3.306509728561131678e-01,3.442229161662264114e-01,3.265673792937786035e-01,3.089118424213308511e-01,2.912563055488830432e-01,2.766034110016814540e-01,2.648330530867164523e-01,2.530626951717512285e-01,2.412923372567860603e-01,4.024741772760017655e-01,6.025702618304100699e-01,8.026663463848182634e-01,9.789815037232764139e-01,9.848666826807590535e-01,9.907518616382415821e-01,9.966370405957242218e-01,8.839779005524874833e-01,6.132596685082880583e-01,3.425414364640886333e-01,7.182320441989276105e-02,6.341580590919922156e-02,1.497317639522773025e-01,2.360477219953553696e-01,3.185202978621186620e-01,3.106733925854752165e-01,3.028264873088318820e-01,2.949795820321884365e-01,2.878132756826007332e-01,2.819280967251181491e-01,2.760429177676355650e-01,2.701577388101529809e-01,2.809272159500357802e-01,3.005444791416443939e-01,3.201617423332530632e-01,3.397790055248617325e-01,3.274081191448475758e-01,3.136760349107214907e-01,2.999439506765954611e-01,2.955801104972372584e-01,3.171591000080067890e-01,3.387380895187762642e-01,3.603170790295457948e-01,3.639602850508447673e-01,3.541516534550404605e-01,3.443430218592362646e-01,3.345343902634319577e-01,3.574345423973093183e-01,3.848987108655614331e-01,4.123628793338135479e-01,4.326207062214749710e-01,4.208503483065099138e-01,4.090799903915447455e-01,3.973096324765795773e-01,4.028344943550321577e-01,4.263752101849625498e-01,4.499159260148929418e-01,4.734566418448233338e-01,4.579630074465533829e-01,4.324605652974617964e-01,4.069581231483708761e-01,3.844583233245254528e-01,3.883817759628472865e-01,3.923052286011689538e-01,3.962286812394907320e-01,3.825366322363686344e-01,3.433021058531507963e-01,3.040675794699340129e-01,2.648330530867172294e-01,2.662342861718310916e-01,2.838898230442786219e-01,3.015453599167266518e-01,3.184402274001123523e-01,2.988229642085034610e-01,2.792057010168950693e-01,2.595884378252866775e-01,2.515013211626230261e-01,2.671951317159096950e-01,2.828889422691968636e-01,2.985827528224835881e-01,2.944190887981427696e-01,2.787252782448556565e-01,2.630314676915689320e-01,2.473376571382818190e-01,2.776843622387695221e-01,3.110337096645046651e-01,3.443830570902389199e-01,3.628392985827534889e-01,3.353751301145010411e-01,3.079109616462493149e-01,2.804467931779968115e-01,2.627111858435425273e-01,2.529025542477380539e-01,2.430939226519338581e-01,2.332852910561296345e-01,2.503803346945309705e-01,2.719593242053002236e-01,2.935383137160700318e-01,3.090319481143408709e-01,2.933381375610537578e-01,2.776443270077670333e-01,2.619505164544803089e-01,2.628312915365519919e-01,2.824485547281603837e-01,3.020658179197692750e-01,3.216830811113776667e-01,3.169589238529909592e-01,3.051885659380256244e-01,2.934182080230605671e-01,2.835695411962526058e-01,2.953398991112176075e-01,3.071102570261829978e-01,3.188806149411480551e-01,3.238049483545521467e-01,3.179197693970695071e-01,3.120345904395869785e-01,3.061494114821043389e-01,3.193210024821839244e-01,3.408999919929537326e-01,3.624789815037229301e-01,3.840579710144927383e-01
2.237762237762237760e-01,2.124174168373063332e-01,2.010586098983889181e-01,1.896998029594714752e-01,1.852953676158096141e-01,1.966541745547270570e-01,2.080129814936444721e-01,2.193717884325618872e-01,2.202990379785959851e-01,2.146196345091372637e-01,2.089402310396785423e-01,2.032608275702198208e-01,2.219217246841556079e-01,2.427462040721709013e-01,2.635706834601861948e-01,2.784453115944828805e-01,2.727659081250241591e-01,2.670865046555654376e-01,2.614071011861067162e-01,2.707955028397017183e-01,2.935131167175366040e-01,3.162307305953714343e-01,3.389483444732063200e-01,3.284008808870687579e-01,3.113626704786926491e-01,2.943244600703164848e-01,2.829656531313989865e-01,3.056832670092338167e-01,3.284008808870686469e-01,3.511184947649035326e-01,3.508866823783950983e-01,3.224896650311016577e-01,2.940926476838079950e-01,2.656956303365143324e-01,2.773248850596915505e-01,3.019356334273460285e-01,3.265463817950005065e-01,3.495344434570953895e-01,3.476413089672757972e-01,3.457481744774562604e-01,3.438550399876366681e-01,3.426573426573426562e-01,3.426573426573426562e-01,3.426573426573426562e-01,3.426573426573426562e-01,3.668817370474827810e-01,4.028512923540547019e-01,4.388208476606264563e-01,4.747904029671983772e-01,4.365799945910444069e-01,3.968241703048335234e-01,3.570683460186224734e-01,3.270486419657690491e-01,3.213692384963103277e-01,3.156898350268516618e-01,3.100104315573929403e-01,2.931267627400226394e-01,2.685160143723681059e-01,2.439052660047136278e-01,2.192945176370591220e-01,2.286829192906540686e-01,2.419348607193909373e-01,2.551868021481280002e-01,2.634161418691806089e-01,2.520573349302631661e-01,2.406985279913457232e-01,2.293397210524282526e-01,2.218444538886527873e-01,2.180581849090136859e-01,2.142719159293745290e-01,2.104856469497353721e-01,3.844222076266263777e-01,5.983464049762384773e-01,8.122706023258506880e-01,9.946683151103046239e-01,9.511262218444543892e-01,9.075841285786041546e-01,8.640420353127538089e-01,7.417996368272622432e-01,5.146234980489130528e-01,2.874473592705638625e-01,6.027122049221766975e-02,3.477185797627738856e-02,8.210022022176680090e-02,1.294285824672561924e-01,1.752115288026889761e-01,1.846772012517868544e-01,1.941428737008846217e-01,2.036085461499825000e-01,2.209558397403698082e-01,2.531391260673026000e-01,2.853224123942353918e-01,3.175056987211681836e-01,3.175443341189199686e-01,3.005061237105438043e-01,2.834679133021676400e-01,2.664297028937914202e-01,2.893404937603830662e-01,3.139512421280375998e-01,3.385619904956920778e-01,3.516207549356723527e-01,3.326894100374765961e-01,3.137580651392808395e-01,2.948267202410850274e-01,2.856314955762469521e-01,2.837383610864274153e-01,2.818452265966078785e-01,2.799520921067882862e-01,2.996561449600121385e-01,3.223737588378470242e-01,3.450913727156819100e-01,3.594637406792104417e-01,3.367461268013758335e-01,3.140285129235408923e-01,2.913108990457060066e-01,2.889927751806202760e-01,3.079241200788160326e-01,3.268554649770117893e-01,3.457868098752075459e-01,3.345825445272961884e-01,3.156511996291002098e-01,2.967198547309046752e-01,2.808793416528220788e-01,2.922381485917396882e-01,3.035969555306569645e-01,3.149557624695745739e-01,3.100877023528961773e-01,2.816906850056021261e-01,2.532936676583088520e-01,2.248966503110155779e-01,2.262488892323145373e-01,2.395008306610513782e-01,2.527527720897885799e-01,2.652320055634976304e-01,2.406212571958428192e-01,2.160105088281886743e-01,1.913997604605344738e-01,1.822431711934472676e-01,2.049607850712818757e-01,2.276783989491171223e-01,2.503960128269517305e-01,2.467642854383190754e-01,2.278329405401230690e-01,2.089015956419275344e-01,1.899702507437315280e-01,2.065834717768416096e-01,2.255148166750376160e-01,2.444461615732331228e-01,2.550322605571228030e-01,2.398871846385660089e-01,2.247421087200096035e-01,2.095970328014527817e-01,2.163582274079507151e-01,2.409689757756055539e-01,2.655797241432596989e-01,2.901904725109138994e-01,2.742340532395783348e-01,2.515164393617437266e-01,2.287988254839084801e-01,2.073175443341191693e-01,1.921724684155623752e-01,1.770273924970059420e-01,1.618823165784495366e-01,1.636209094772628769e-01,1.844453888652779483e-01,2.052698682532935748e-01,2.260943476413086461e-01,2.146196345091378466e-01,1.937951551211222478e-01,1.729706757331071765e-01,1.560097361202331390e-01,1.825136189777068763e-01,2.090175018351813074e-01,2.355213846926550170e-01,2.436734536182055821e-01,2.228489742301899557e-01,2.020244948421748843e-01,1.812000154541592578e-01,1.827067959664642471e-01,1.940656029053818565e-01,2.054244098442991606e-01,2.167832167832167700e-01
2.244897959183673464e-01,2.092964257526215011e-01,1.941030555868756280e-01,1.789096854211297827e-01,1.742868418085466165e-01,1.936238583831322579e-01,2.129608749577178717e-01,2.322978915323035132e-01,2.304938550005637687e-01,2.153004848348178957e-01,2.001071146690720504e-01,1.849137445033262328e-01,1.912842485060322339e-01,1.995715413237117986e-01,2.078588341413913354e-01,2.124253016123576476e-01,2.041380087946781108e-01,1.958507159769985462e-01,1.875634231593189816e-01,1.895365881159093435e-01,2.005863118728154204e-01,2.116360356297214973e-01,2.226857593866275464e-01,2.117769759837636878e-01,1.965836058180178425e-01,1.813902356522719972e-01,1.709324613823429706e-01,1.888882624873153282e-01,2.068440635922876858e-01,2.247998646972600989e-01,2.272522268575938864e-01,2.106776412222348405e-01,1.941030555868756835e-01,1.775284699515165265e-01,1.859848911940465976e-01,2.025594768294057268e-01,2.191340624647648838e-01,2.351166986131468795e-01,2.420227759612131879e-01,2.489288533092794964e-01,2.558349306573458048e-01,2.693370165745855305e-01,2.941988950276242520e-01,3.190607734806629736e-01,3.439226519337015286e-01,3.399481339497125720e-01,3.219923328447401589e-01,3.040365317397678568e-01,2.860807306347954437e-01,2.830082309166760401e-01,2.802457999774495279e-01,2.774833690382230156e-01,2.680121772465893226e-01,2.417690833239374837e-01,2.155259894012855337e-01,1.892828954786335283e-01,1.720317961438720122e-01,1.609820723869659076e-01,1.499323486300598030e-01,1.388826248731536983e-01,1.501578531965272190e-01,1.639700078926596416e-01,1.777821625887922585e-01,1.828560153343107286e-01,1.538504904724322386e-01,1.248449656105537209e-01,9.583944074867521701e-02,1.295523734355620571e-01,2.234750253692626698e-01,3.173976773029645315e-01,4.113203292366663377e-01,5.548539857932114350e-01,7.095501183898969000e-01,8.642462509865822540e-01,9.709099109256992266e-01,7.333408501522180600e-01,4.957717893787370045e-01,2.582027286052558379e-01,1.082421919043862202e-01,7.509302063366793401e-02,4.194384936294963395e-02,8.794678092231764110e-03,4.262036306235142402e-02,1.006314127861084456e-01,1.586424625098654673e-01,2.138347051527793863e-01,2.027849813958732816e-01,1.917352576389673158e-01,1.806855338820612389e-01,1.801781486075091088e-01,1.995151651820947780e-01,2.188521817566804750e-01,2.381891983312661165e-01,2.403878678543241443e-01,2.334817905062578358e-01,2.265757131581915274e-01,2.196696358101252189e-01,2.392603450219865369e-01,2.599785770661854900e-01,2.806968091103844154e-01,2.933532529033714420e-01,2.836847446160786212e-01,2.740162363287857450e-01,2.643477280414929242e-01,2.696752734242867655e-01,2.862498590596458947e-01,3.028244446950048574e-01,3.193990303303639866e-01,3.165802232495208979e-01,3.110553613710678178e-01,3.055304994926147932e-01,2.992445597023340453e-01,2.895760514150413356e-01,2.799075431277485149e-01,2.702390348404556386e-01,2.741008005412107762e-01,2.920566016461831893e-01,3.100124027511556024e-01,3.279682038561279600e-01,3.140432968767620792e-01,2.919438493629495923e-01,2.698444018491377161e-01,2.497181192919157300e-01,2.469556883526891622e-01,2.441932574134626777e-01,2.414308264742361099e-01,2.319032585409857572e-01,2.125662419663998381e-01,1.932292253918144187e-01,1.738922088172289993e-01,1.802063366783175913e-01,1.967809223136765262e-01,2.133555079490359052e-01,2.292535798849929252e-01,2.126789942496335462e-01,1.961044086142746390e-01,1.795298229789156763e-01,1.760345021986693403e-01,1.995151651820945005e-01,2.229958281655202712e-01,2.464764911489454313e-01,2.446160784755895545e-01,2.280414928402302033e-01,2.114669072048712684e-01,1.948923215695118893e-01,2.055474123350995441e-01,2.179783515616190714e-01,2.304092907881382657e-01,2.370898635697375467e-01,2.260401398128313033e-01,2.149904160559253652e-01,2.039406922990191218e-01,2.096346826023223753e-01,2.289716991769082943e-01,2.483087157514937138e-01,2.676457323260791332e-01,2.550174766039013940e-01,2.370616754989292307e-01,2.191058743939565956e-01,2.058856691848008069e-01,2.169353929417070503e-01,2.279851166986129885e-01,2.390348404555189543e-01,2.384147028977338101e-01,2.246025482016013597e-01,2.107903935054685485e-01,1.969782388093360981e-01,2.099447513812149058e-01,2.306629834254141087e-01,2.513812154696127843e-01,2.686041267335665395e-01,2.465046792197546355e-01,2.244052317059421486e-01,2.023057841921302447e-01,1.844909234411999666e-01,1.734411996842937231e-01,1.623914759273877850e-01,1.513417521704815416e-01,1.604183109707968125e-01,1.783741120757694476e-01,1.963299131807416387e-01,2.142857142857142738e-01
2.336448598130841103e-01,2.134042443331440053e-01,1.931636288532039003e-01,1.729230133732637953e-01,1.557804512831104382e-01,1.456601435431403857e-01,1.355398358031703332e-01,1.254195280632003084e-01,1.315640006196106548e-01,1.480095006970620075e-01,1.644550007745133324e-01,1.809005008519646573e-01,1.741106005060154005e-01,1.652553312335415803e-01,1.564000619610678156e-01,1.537925336913306129e-01,1.727681107037744301e-01,1.917436877162182474e-01,2.107192647286621479e-01,2.135849641142149313e-01,2.021996179067485910e-01,1.908142716992823062e-01,1.794289254918159937e-01,1.860381060566943523e-01,1.961584137966644048e-01,2.062787215366344296e-01,2.133267929983993505e-01,2.019414467909330657e-01,1.905561005834667532e-01,1.791707543760004406e-01,1.802808901740073078e-01,1.967263902514585772e-01,2.131718903289099576e-01,2.296173904063613103e-01,2.250477616564259264e-01,2.136624154489596139e-01,2.022770692414932736e-01,1.935250684153454748e-01,2.251510301027519478e-01,2.567769917901584487e-01,2.884029534775648940e-01,3.037641348685909404e-01,2.911137501936283400e-01,2.784633655186657397e-01,2.658129808437032504e-01,2.702018898125677082e-01,2.828522744875303085e-01,2.955026591624927979e-01,3.081530438374553982e-01,2.761914596994888838e-01,2.433004595445863727e-01,2.104094593896836396e-01,1.894459647854597750e-01,1.983012340579335120e-01,2.071565033304073322e-01,2.160117726028811524e-01,2.091444209221873796e-01,1.914338823772397391e-01,1.737233438322920986e-01,1.560128052873444859e-01,1.462539371095161744e-01,1.373986678370424930e-01,1.285433985645686727e-01,1.227861826818815033e-01,1.291113750193627896e-01,1.354365673568440898e-01,1.417617596943253622e-01,1.739040636133629136e-01,2.308307946506938380e-01,2.877575256880254839e-01,3.446842567253571299e-01,4.976506428460774067e-01,6.722259513605610692e-01,8.468012598750449538e-01,9.668508287292851833e-01,6.961325966850857583e-01,4.254143646408863333e-01,1.546961325966869083e-01,1.301182423710420775e-02,4.337274745701442252e-02,7.373367067692464250e-02,1.040945938968344531e-01,1.270201889812565821e-01,1.472608044611967149e-01,1.675014199411368476e-01,1.876387669747507925e-01,2.053493055196984052e-01,2.230598440646457958e-01,2.407703826095934085e-01,2.488253214230392585e-01,2.387050136830692060e-01,2.285847059430991257e-01,2.184643982031290732e-01,2.256931894459645316e-01,2.421386895234158843e-01,2.585841896008672647e-01,2.750296896783186451e-01,2.659937006247741764e-01,2.558733928848040962e-01,2.457530851448340159e-01,2.416739815149479276e-01,2.543243661899105001e-01,2.669747508648731005e-01,2.796251355398357008e-01,2.814323333505447389e-01,2.751071410130634387e-01,2.687819486755822496e-01,2.624567563381009494e-01,2.761140083647439236e-01,2.925595084421953040e-01,3.090050085196466845e-01,3.215004905251200862e-01,3.164403366551351016e-01,3.113801827851500614e-01,3.063200289151650213e-01,3.124128672484120517e-01,3.301234057933596366e-01,3.478339443383072771e-01,3.655444828832549176e-01,3.480146641193787582e-01,3.214488563019569645e-01,2.948830484845358368e-01,2.683172406671147647e-01,2.417514328496929710e-01,2.151856250322718989e-01,1.886198172148501051e-01,1.754789074198377652e-01,1.818040997573191486e-01,1.881292920948003378e-01,1.944544844322815547e-01,1.863220942840916050e-01,1.724066711416329389e-01,1.584912479991739120e-01,1.451696184230905906e-01,1.603500800330459053e-01,1.755305416430008036e-01,1.907110032529557020e-01,1.972169153715083167e-01,1.858315691640421430e-01,1.744462229565756362e-01,1.630608767491094624e-01,1.708834615583203487e-01,1.898590385707644990e-01,2.088346155832081219e-01,2.278101925956522722e-01,2.182836784220583415e-01,2.068983322145918624e-01,1.955129860071256886e-01,1.906335519182109917e-01,2.058140135281663063e-01,2.209944751381212047e-01,2.361749367480765194e-01,2.346259100531835062e-01,2.194454484432281915e-01,2.042649868332732932e-01,1.890845252233183671e-01,2.020963494604221811e-01,2.198068880053695717e-01,2.375174265503174342e-01,2.494449321009968024e-01,2.317343935560489676e-01,2.140238550111015770e-01,1.963133164661541863e-01,1.952289977797282416e-01,2.129395363246756323e-01,2.306500748696234671e-01,2.483606134145708577e-01,2.395827954768424695e-01,2.231372953993908947e-01,2.066917953219397641e-01,1.925182010636649066e-01,2.039035472711310804e-01,2.152888934785975594e-01,2.266742396860637332e-01,2.282490834925392231e-01,2.143336603500801962e-01,2.004182372076215302e-01,1.865028140651625033e-01,1.743429545102496148e-01,1.629576083027831079e-01,1.515722620953169342e-01,1.401869158878504551e-01
