3.043478260869565410e-01,2.494194891504524225e-01,1.944911522139483040e-01,1.395628152774441855e-01,1.314756986147809781e-01,2.295620145728240746e-01,3.276483305308671157e-01,4.257346464889101290e-01,4.637681159420289911e-01,4.637681159420289911e-01,4.637681159420289911e-01,4.637681159420289911e-01,3.917047001361199099e-01,3.132356473696853993e-01,2.347665946032510276e-01,2.020978461045719876e-01,3.276483305308669491e-01,4.531988149571619107e-01,5.787492993834573163e-01,5.773080310673394111e-01,4.635279045560092293e-01,3.497477780446794360e-01,2.359676515333496427e-01,2.567859716550563998e-01,3.038674033149170173e-01,3.509488349747776903e-01,3.963487869325005852e-01,4.316598606773960345e-01,4.669709344222914837e-01,5.022820081671870440e-01,4.988389783009047895e-01,4.478340940027226158e-01,3.968292097045401090e-01,3.458243254063576577e-01,3.511089758987908094e-01,3.746496917287211459e-01,3.981904075586515379e-01,4.241332372487784941e-01,4.869084794619262246e-01,5.496837216750738442e-01,6.124589638882216303e-01,6.420850348306511579e-01,6.146208663623989876e-01,5.871566978941469284e-01,5.596925294258949801e-01,5.137320842341261962e-01,4.588037472976220221e-01,4.038754103611181256e-01,3.489470734246138961e-01,3.286091760749459967e-01,3.089919128833374939e-01,2.893746496917288247e-01,2.843302105853149908e-01,3.157178316918886063e-01,3.471054527984624993e-01,3.784930739050363369e-01,3.750500440387543599e-01,3.475858755705022451e-01,3.201217071022501304e-01,2.926575386339980156e-01,3.462246777163903722e-01,4.089999199295372145e-01,4.717751621426849451e-01,5.217391304347825942e-01,5.217391304347825942e-01,5.217391304347825942e-01,5.217391304347825942e-01,4.756986147810072785e-01,3.854592040996086544e-01,2.952197934182088646e-01,2.049803827368090747e-01,3.677636319961554712e-01,5.874769797421723894e-01,8.071903274881893076e-01,9.769397069421114077e-01,7.886139803026683825e-01,6.002882536632252464e-01,4.119625270237822212e-01,2.774441508527507594e-01,2.146689086396030288e-01,1.518936664264553260e-01,8.911842421330845587e-02,9.840659780606898777e-02,1.337176715509645897e-01,1.690287452958601500e-01,2.035391144206901426e-01,2.192329249739770614e-01,2.349267355272637858e-01,2.506205460805507323e-01,2.717591480502839496e-01,3.031467691568577871e-01,3.345343902634316802e-01,3.659220113700055177e-01,3.563135559292182064e-01,3.249259348226443134e-01,2.935383137160704758e-01,2.621506926094966383e-01,2.985026823604769453e-01,3.377372087436942838e-01,3.769717351269115668e-01,4.016334374249341810e-01,3.859396268716472345e-01,3.702458163183603435e-01,3.545520057650733969e-01,3.343742493394188386e-01,3.108335335094884466e-01,2.872928176795583877e-01,2.637521018496279956e-01,3.779325806709888935e-01,5.113299703739278002e-01,6.447273600768665958e-01,7.161502121867254766e-01,5.121306749939982250e-01,3.081111378012681978e-01,1.040916006085381706e-01,4.419889502762330835e-02,1.344383057090230982e-01,2.246777163904229158e-01,3.149171270718227333e-01,3.832973016254292986e-01,4.460725438385778618e-01,5.088477860517246487e-01,5.572103451036930499e-01,4.787412923372574292e-01,4.002722395708238623e-01,3.218031868043882415e-01,2.545439987188733988e-01,2.035391144206902259e-01,1.525342301225084130e-01,1.015293458243265723e-01,9.536392024981973914e-02,1.071342781647847825e-01,1.189046360797501312e-01,1.325966850828713128e-01,2.385299063175594370e-01,3.444631275522447300e-01,4.503963487869301341e-01,5.025222195532071945e-01,4.436704299783820749e-01,3.848186404035553454e-01,3.259668508287301703e-01,2.745616142205152821e-01,2.274801825606538874e-01,1.803987509007937140e-01,1.333173192409323471e-01,2.188325726639425706e-01,3.129954359836653044e-01,4.071582993033856512e-01,4.696132596685091976e-01,4.343021859236131377e-01,3.989911121787180215e-01,3.636800384338219616e-01,3.543117943790533575e-01,3.660821522940186923e-01,3.778525102089837495e-01,3.896228681239488068e-01,3.139562815277452956e-01,2.237168708463466438e-01,1.334774601649456605e-01,7.334454319801267386e-02,1.675074065177354632e-01,2.616702698374557823e-01,3.558331331571760736e-01,3.965889983185205137e-01,3.769717351269120664e-01,3.573544719353031751e-01,3.377372087436947279e-01,3.333333333333333148e-01,3.333333333333333148e-01,3.333333333333333148e-01,3.365361518135956409e-01,3.757706781968124243e-01,4.150052045800302625e-01,4.542397309632470459e-01,4.645688205620955857e-01,4.292577468171995259e-01,3.939466730723044652e-01,3.586355993274084053e-01,3.587156697894143820e-01,3.744094803427014950e-01,3.901032908959882750e-01,4.057971014492753881e-01
1.382978723404255372e-01,1.584577406841424785e-01,1.786176090278594197e-01,1.987774773715763610e-01,2.154108381333019739e-01,2.240507817091806630e-01,2.326907252850593522e-01,2.413306688609380413e-01,2.746561655107557787e-01,3.236158457740683780e-01,3.725755260373809774e-01,4.215352063006935213e-01,4.070177500881627108e-01,3.868578817444457973e-01,3.666980134007288838e-01,3.484777242271070996e-01,3.369577994592688475e-01,3.254378746914305953e-01,3.139179499235923432e-01,2.993417185846949935e-01,2.820618314329375598e-01,2.647819442811802371e-01,2.475020571294228588e-01,2.687786528741036296e-01,2.975784647936992600e-01,3.263782767132948348e-01,3.420124603267898356e-01,2.786528741036795043e-01,2.152932878805692285e-01,1.519337016574587029e-01,1.221934877159985833e-01,1.337134124838367799e-01,1.452333372516750598e-01,1.567532620195133397e-01,1.660985071117902501e-01,1.747384506876689392e-01,1.833783942635476560e-01,1.909603855648290271e-01,1.823204419889503103e-01,1.736804984130716212e-01,1.650405548371929043e-01,1.511108498883273754e-01,1.280710003526508434e-01,1.050311508169742836e-01,8.199130128129789030e-02,1.132596685082870869e-01,1.708592923474784586e-01,2.284589161866694418e-01,2.860585400258608413e-01,2.956976607499706144e-01,3.043376043258492758e-01,3.129775479017279372e-01,3.117432702480311124e-01,2.858234395203951839e-01,2.599036087927590333e-01,2.339837780651229382e-01,2.097684260021160929e-01,1.867285764664395331e-01,1.636887269307630011e-01,1.406488773950864690e-01,1.460561890208063873e-01,1.546961325966849932e-01,1.633360761725636823e-01,1.755025273304335609e-01,2.014223580580696560e-01,2.273421887857057788e-01,2.532620195133419294e-01,2.791818502409780245e-01,3.051016809686137865e-01,3.310215116962499371e-01,3.569413424238860322e-01,5.027624309392255686e-01,6.755613024567996838e-01,8.483601739743737991e-01,9.848360173974389786e-01,8.609968261431775183e-01,7.371576348889160579e-01,6.133184436346545976e-01,4.796050311508176511e-01,3.327259903608796865e-01,1.858469495709416663e-01,3.896790878100564459e-02,7.617256377101105924e-02,1.798518866815555228e-01,2.835312095920999864e-01,3.808628188550607363e-01,3.290231573997885461e-01,2.771834959445169666e-01,2.253438344892447487e-01,2.034794874808977527e-01,2.380392617844125924e-01,2.725990360879274044e-01,3.071588103914422163e-01,2.984600916891976263e-01,2.667802985776423497e-01,2.351005054660870730e-01,2.034207123545318519e-01,1.855530739391090811e-01,1.682731867873516751e-01,1.509932996355942691e-01,1.360056424121313112e-01,1.273656988362525944e-01,1.187257552603739053e-01,1.100858116844951884e-01,1.261314211825553255e-01,1.606911954860701375e-01,1.952509697895845053e-01,2.298107440930993450e-01,2.163512401551665743e-01,1.961913718114496052e-01,1.760315034677326085e-01,1.664511578699892080e-01,2.038909133654631112e-01,2.413306688609374862e-01,2.787704243564118611e-01,2.922299282943459642e-01,2.807100035265076565e-01,2.691900787586694044e-01,2.576701539908310967e-01,2.599036087927588112e-01,2.656635711766779928e-01,2.714235335605970634e-01,2.763018690490185447e-01,2.734218878570588984e-01,2.705419066650993631e-01,2.676619254731397723e-01,2.542024215352067795e-01,2.254026096156107051e-01,1.966027976960154078e-01,1.678029857764201105e-01,1.966027976960146306e-01,2.484424591512862102e-01,3.002821206065591220e-01,3.503585282708363002e-01,3.157987539673210442e-01,2.812389796638066763e-01,2.466792053602923085e-01,2.262254613847418938e-01,2.348654049606204997e-01,2.435053485364992998e-01,2.521452921123779056e-01,2.644292935229806685e-01,2.788291994827787335e-01,2.932291054425764099e-01,3.076290114023744193e-01,2.787704243564129158e-01,2.470906312448572784e-01,2.154108381333024180e-01,1.794992359233584800e-01,1.305395556600451590e-01,8.157987539673314248e-02,3.262019513341982146e-02,4.713765134594924411e-02,1.133772187610201793e-01,1.796167861760893658e-01,2.458563535911585662e-01,2.503820383213824496e-01,2.446220759374633791e-01,2.388621135535441697e-01,2.298107440931002332e-01,2.038909133654637773e-01,1.779710826378280153e-01,1.520512519101922533e-01,1.369460444339955507e-01,1.340660632420360154e-01,1.311860820500764246e-01,1.283061008581168894e-01,1.276595744680850963e-01,1.276595744680850963e-01,1.276595744680850963e-01,1.290701775008814833e-01,1.463500646526386673e-01,1.636299518043962953e-01,1.809098389561534792e-01,1.993064535088744926e-01,2.194663218525917392e-01,2.396261901963084584e-01,2.597860585400256772e-01,2.439755495474321134e-01,2.122957564358764482e-01,1.806159633243216156e-01,1.489361702127659504e-01
2.439024390243902385e-01,2.670125320037730621e-01,2.901226249831558857e-01,3.132327179625387648e-01,3.181511925616494207e-01,2.818353321654763488e-01,2.455194717693033601e-01,2.092036113731303715e-01,2.032071149440776159e-01,2.164128823608678087e-01,2.296186497776580016e-01,2.428244171944481666e-01,2.620940574046624061e-01,2.819027085298477231e-01,3.017113596550329846e-01,3.178143107397924938e-01,3.211157525939900559e-01,3.244171944481875625e-01,3.277186363023851245e-01,3.572968602614202127e-01,4.101199299285810396e-01,4.629429995957417554e-01,5.157660692629024712e-01,4.801913488748147940e-01,4.273682792076540782e-01,3.745452095404934179e-01,3.259668508287293376e-01,3.028567578493465140e-01,2.797466648699636904e-01,2.566365718905808668e-01,2.290796388626869795e-01,1.960652203207116639e-01,1.630508017787360986e-01,1.300363832367605887e-01,1.543592507748279552e-01,1.972779948793961791e-01,2.401967389839643752e-01,2.817005794367334892e-01,3.015092305619188062e-01,3.213178816871041232e-01,3.411265328122894402e-01,3.197008489421915289e-01,2.272604770246600125e-01,1.348201051071285239e-01,4.237973318959764590e-02,6.555720253335099723e-02,1.447918070340923069e-01,2.240264115348330753e-01,3.032610160355743711e-01,2.887077213313569701e-01,2.722005120603693262e-01,2.556933027893815713e-01,2.476755154291873928e-01,2.608812828459775024e-01,2.740870502627677507e-01,2.872928176795579436e-01,3.298073035978973389e-01,3.925346988276508520e-01,4.552620940574043651e-01,5.179894892871579337e-01,4.532408031262633585e-01,3.740061986255230897e-01,2.947715941247818217e-01,2.424875353725908789e-01,2.953106050397517612e-01,3.481336747069125881e-01,4.009567443740734705e-01,4.133539954184072274e-01,3.869424605848271193e-01,3.605309257512467336e-01,3.341193909176662924e-01,4.774962942999586013e-01,6.590755962808241275e-01,8.406548982616894872e-01,9.830211561784143459e-01,8.443605983021170713e-01,7.057000404258197968e-01,5.670394825495226332e-01,4.425279611912146249e-01,3.368818218568928602e-01,2.312356825225711510e-01,1.255895431882508295e-01,1.363697614876696051e-01,1.891928311548304320e-01,2.420159008219913144e-01,2.944347123029239510e-01,3.373534564074921471e-01,3.802722005120597881e-01,4.231909446166279842e-01,4.500741140008085450e-01,4.467726721466109829e-01,4.434712302924134208e-01,4.401697884382159143e-01,4.196199973049458687e-01,3.899070206171678654e-01,3.601940439293899177e-01,3.304810672416119144e-01,2.912680231774696371e-01,2.516507209270989476e-01,2.120334186767283136e-01,2.030723622153337848e-01,2.790055248618775185e-01,3.549386875084212800e-01,4.308718501549649860e-01,4.407761757175585604e-01,4.011588734671879264e-01,3.615415712168177365e-01,3.219242689664471024e-01,3.373534564074919806e-01,3.604635493868748597e-01,3.835736423662577388e-01,3.988007007141896043e-01,3.789920495890045093e-01,3.591833984638191923e-01,3.393747473386338753e-01,3.211831289583615967e-01,3.046759196873738418e-01,2.881687104163860869e-01,2.716615011453982764e-01,2.104837622961877042e-01,1.378520415038405611e-01,6.522032071149530541e-02,4.716345505995404690e-03,5.093653146476177090e-02,9.715671742352692541e-02,1.433769033822932804e-01,1.653415981673631019e-01,1.521358307505727148e-01,1.389300633337826607e-01,1.257242959169926344e-01,1.785473655841524343e-01,2.577819700848926754e-01,3.370165745856350537e-01,4.136235008758934462e-01,3.641018730629295153e-01,3.145802452499668611e-01,2.650586174370042070e-01,2.198490769438083969e-01,1.835332165476357691e-01,1.472173561514621976e-01,1.109014957552895836e-01,1.581323271796229168e-01,2.538741409513532443e-01,3.496159547230810460e-01,4.453577684948113458e-01,3.644387548847880520e-01,2.719983829672553144e-01,1.795580110497250748e-01,1.162242285406272779e-01,1.426357633742080522e-01,1.690472982077881325e-01,1.954588330413689068e-01,2.273278533890304987e-01,2.636437137852040702e-01,2.999595741813766980e-01,3.362754345775493259e-01,3.244845708125591588e-01,3.046759196873741193e-01,2.848672685621885248e-01,2.666756501819163572e-01,2.567713246193235599e-01,2.468669990567310402e-01,2.369626734941385204e-01,2.425549117369624752e-01,2.656650047163450212e-01,2.887750976957282334e-01,3.118851906751107794e-01,3.145128688855950427e-01,3.112114270313974251e-01,3.079099851771999186e-01,3.000269505457490715e-01,2.406009971701938421e-01,1.811750437946371139e-01,1.217490904190819401e-01,9.432691011992931640e-02,1.174370030993125008e-01,1.405470960786950885e-01,1.636571890580782451e-01,1.501145398194319025e-01,1.204015631316535384e-01,9.068858644387593759e-02,6.097560975609755962e-02
1.359223300970873738e-01,1.254090006973126725e-01,1.148956712975379435e-01,1.043823418977632422e-01,1.163975754975057342e-01,1.794775518961540528e-01,2.425575282948023159e-01,3.056375046934505790e-01,3.059593413077295043e-01,2.665343560585742844e-01,2.271093708094190922e-01,1.876843855602639555e-01,1.579144987394733024e-01,1.290028428900928115e-01,1.000911870407123899e-01,9.478088290511181568e-02,1.710025210534784068e-01,2.472241592018449563e-01,3.234457973502117833e-01,3.201737917717107362e-01,2.465804859732875776e-01,1.729871801748646964e-01,9.939387437644175982e-02,1.049723756906077166e-01,1.259990344901571191e-01,1.470256932897065216e-01,1.691787802392318574e-01,1.980904360886122650e-01,2.270020919379927005e-01,2.559137477873731914e-01,2.647642546800407781e-01,2.489942605803787679e-01,2.332242664807166466e-01,2.174542723810545530e-01,2.076382556455506345e-01,1.997532585957196016e-01,1.918682615458885410e-01,1.855924475674514684e-01,2.039907740170572581e-01,2.223891004666630478e-01,2.407874269162688374e-01,2.514616746231829736e-01,2.488333422732393052e-01,2.462050099232956091e-01,2.435766775733519407e-01,2.108566217883389715e-01,1.635466394893526632e-01,1.162366571903666601e-01,6.892667489138035175e-02,8.598401544815743869e-02,1.043823418977631035e-01,1.227806683473688931e-01,1.291637611972322741e-01,1.055087700477392865e-01,8.185377889824613229e-02,5.819878774875297811e-02,4.698814568470741776e-02,4.435981333476373550e-02,4.173148098482004631e-02,3.910314863487636405e-02,6.715657351284662346e-02,9.869656171217040808e-02,1.302365499114946090e-01,1.531942283967173413e-01,1.426808989969426122e-01,1.321675695971678832e-01,1.216542401973931542e-01,1.111409107976184113e-01,1.006275813978438072e-01,9.011425199806907815e-02,7.960092259829433525e-02,2.814997586225379544e-01,5.311913318671879214e-01,7.808829051118378883e-01,9.761840905433699644e-01,7.816874966475373387e-01,5.871909027517047130e-01,3.926943088558720873e-01,2.747948291583973135e-01,2.590248350587352477e-01,2.432548409590731264e-01,2.274848468594112272e-01,1.943356755886932186e-01,1.549106903395379708e-01,1.154857050903826954e-01,8.067371131255667016e-02,1.542670171109798150e-01,2.278603229094020022e-01,3.014536287078251053e-01,3.166872284503576274e-01,2.220672638523849829e-01,1.274472992544123662e-01,3.282733465643977722e-02,1.373169554256258029e-02,3.475835434211204528e-02,5.578501314166151720e-02,7.681167194121098218e-02,1.331330794400038819e-01,1.909563911387649193e-01,2.487797028375259567e-01,2.814997586225397863e-01,2.447031057233282347e-01,2.079064528241166554e-01,1.711097999249050761e-01,1.538379016252749143e-01,1.512095692753312182e-01,1.485812369253875775e-01,1.459529045754438814e-01,1.340985892828408799e-01,1.209569275331224825e-01,1.078152657834040573e-01,1.023976827763770220e-01,1.313093386257571660e-01,1.602209944751376847e-01,1.891326503245182034e-01,2.128949203454377492e-01,2.312932467950435389e-01,2.496915732446493286e-01,2.680898996942551182e-01,2.425575282948029265e-01,2.057608753955908754e-01,1.689642224963797956e-01,1.383361047041779535e-01,1.619910958536714130e-01,1.856460870031642618e-01,2.093010781526577491e-01,2.211553934452610559e-01,2.158987287453736081e-01,2.106420640454862991e-01,2.053853993455989901e-01,2.095156358955103104e-01,2.174006329453412600e-01,2.252856299951724317e-01,2.330633481735771839e-01,2.356916805235209078e-01,2.383200128734645484e-01,2.409483452234081891e-01,2.298449820307893188e-01,1.904199967816345984e-01,1.509950115324788233e-01,1.115700262833240752e-01,1.236925387544912103e-01,1.657458563535906815e-01,2.077991739526890980e-01,2.498524915517885692e-01,3.091777074505165368e-01,3.696293514992220475e-01,4.300809955479260038e-01,4.615673443115392849e-01,4.037440326127775259e-01,3.459207209140172101e-01,2.880974092152553956e-01,2.476532746875507451e-01,2.213699511881135618e-01,1.950866276886770723e-01,1.688033041892405828e-01,1.673013999892720982e-01,1.699297323392157388e-01,1.725580646891594627e-01,1.781902054390384349e-01,1.992168642385881705e-01,2.202435230381373787e-01,2.412701818376865592e-01,2.351552861663898653e-01,1.983586332671787855e-01,1.615619803679667066e-01,1.247653274687556268e-01,1.042750630263374056e-01,8.850506892667509007e-02,7.273507482701319082e-02,6.232902429866395838e-02,1.122673389475933037e-01,1.622056535965239465e-01,2.121439682454532849e-01,2.794078206297244127e-01,3.740277852276983062e-01,4.686477498256696461e-01,5.632677144236435396e-01,5.119884138818880936e-01,3.963417904843645756e-01,2.806951670868439996e-01,1.650485436893203983e-01
1.287128712871287162e-01,1.421147639625841008e-01,1.555166566380394855e-01,1.689185493134948701e-01,1.847820141130135096e-01,2.062250423937421195e-01,2.276680706744707572e-01,2.491110989551993671e-01,2.147584924238280790e-01,1.450686505114600067e-01,7.537880859909196207e-02,5.688966686724028499e-03,3.446200973688524904e-02,7.198730922816036493e-02,1.095126087194354114e-01,1.331984027131995207e-01,1.090749958973798450e-01,8.495158908156016930e-02,6.082818226574041032e-02,5.519391718177340395e-02,6.591543132213772971e-02,7.663694546250203465e-02,8.735845960286633960e-02,9.807997374323065842e-02,1.088014878835949634e-01,1.195230020239592683e-01,1.237350254362453439e-01,8.889010448006137710e-02,5.404518352387739644e-02,1.920026256769331863e-02,3.971336360155349604e-02,1.281658552595586753e-01,2.166183469175644305e-01,3.050708385755702134e-01,3.105409988512664587e-01,2.890979705705378211e-01,2.676549422898091279e-01,2.480170669000601180e-01,2.560582025053333988e-01,2.640993381106066518e-01,2.721404737158799048e-01,2.851047535692795010e-01,3.065477818500081386e-01,3.279908101307368318e-01,3.494338384114653029e-01,3.257480444177016099e-01,2.801816093211532133e-01,2.346151742246050664e-01,1.890487391280566420e-01,1.933701657458563317e-01,1.987309228160384633e-01,2.040916798862206227e-01,2.025600350090258073e-01,1.837973852633883465e-01,1.650347355177507747e-01,1.462720857721132028e-01,1.576500191455607047e-01,1.898145615666537167e-01,2.219791039877467009e-01,2.541436464088396852e-01,2.550188720529511510e-01,2.523384935178600852e-01,2.496581149827690194e-01,2.502598326130954787e-01,2.636617252885508633e-01,2.770636179640063035e-01,2.904655106394616881e-01,2.929270827635249708e-01,2.848859471582518288e-01,2.768448115529785758e-01,2.688036759477053228e-01,4.292434768338702078e-01,6.275914884306104113e-01,8.259395000273505039e-01,9.757124883759119571e-01,7.773644767791717536e-01,5.790164651824316611e-01,3.806684535856914575e-01,2.455007931732402504e-01,1.945736010065096666e-01,1.436464088397790828e-01,9.271921667304913739e-02,1.461626825665982565e-01,2.372955527596951053e-01,3.284284229527919541e-01,4.128876976095402496e-01,3.405174771620809726e-01,2.681472567146226949e-01,1.957770362671634179e-01,1.354958700289921880e-01,9.797057053771704438e-02,6.044527104644187299e-02,2.291997155516670159e-02,2.390460040479154558e-02,4.534762868552021098e-02,6.679065696624887638e-02,8.823368524697754178e-02,1.456703681417861329e-01,2.046386959137899697e-01,2.636070236857938065e-01,2.969750013675406253e-01,2.594497018762654261e-01,2.219244023849902825e-01,1.843991028937151111e-01,1.713801214375580972e-01,1.767408785077402567e-01,1.821016355779223606e-01,1.874623926481045200e-01,1.810623051255402793e-01,1.730211695202670263e-01,1.649800339149937733e-01,1.618620425578468358e-01,1.806246923034841856e-01,1.993873420491217574e-01,2.181499917947593570e-01,2.382254800065639611e-01,2.596685082872925987e-01,2.811115365680212919e-01,3.025545648487499850e-01,2.983972430392212161e-01,2.876757288988567307e-01,2.769542147584925784e-01,2.656856845905589126e-01,2.496034133800121846e-01,2.335211421694659006e-01,2.174388709589191726e-01,2.166730485203212930e-01,2.381160768010502360e-01,2.595591050817785961e-01,2.810021333625070117e-01,2.852141567747935036e-01,2.825337782397024933e-01,2.798533997046113719e-01,2.775012307860618699e-01,2.909031234615174211e-01,3.043050161369726947e-01,3.177069088124279128e-01,3.241069963349926808e-01,3.160658607297195388e-01,3.080247251244461748e-01,2.999835895191730328e-01,2.546359608336541402e-01,1.876264974563761623e-01,1.206170340790999607e-01,5.360757070182201045e-02,2.206115639188195310e-01,4.028773043050155600e-01,5.851430446912069261e-01,6.886384771073827959e-01,5.492587932826445973e-01,4.098791094579100625e-01,2.704994256331718638e-01,1.828127564137637107e-01,1.372463213172147034e-01,9.167988622066687576e-02,4.611345112411907587e-02,4.879382965920891352e-02,5.951534379957310744e-02,7.023685793993758586e-02,8.577211312291382894e-02,1.259777911492806213e-01,1.661834691756463589e-01,2.063891472020120688e-01,2.201739510967672953e-01,2.040916798862210113e-01,1.880094086756742833e-01,1.719271374651279993e-01,1.745528143974616475e-01,1.825939500027349838e-01,1.906350856080081257e-01,1.947377058147807261e-01,1.545320277884149884e-01,1.143263497620482100e-01,7.412067173568247236e-02,6.197691592363570312e-02,9.414145834472913144e-02,1.263060007658217132e-01,1.584705431869151415e-01,1.813358131393246198e-01,2.000984628849624691e-01,2.188611126305997912e-01,2.376237623762376128e-01
2.068965517241379282e-01,2.006731440909379494e-01,1.944497364577379706e-01,1.882263288245379917e-01,1.781926716199911109e-01,1.595224487203911745e-01,1.408522258207912659e-01,1.221820029211913572e-01,1.206579030926525631e-01,1.299930145424525452e-01,1.393281259922524995e-01,1.486632374420524538e-01,1.837175334984441077e-01,2.210579792976439806e-01,2.583984250968437424e-01,2.852606845748396625e-01,2.759255731250396804e-01,2.665904616752397538e-01,2.572553502254397717e-01,2.644313202514764205e-01,2.862132469676763602e-01,3.079951736838762444e-01,3.297771004000761286e-01,3.541626976566965013e-01,3.790563281894963610e-01,4.039499587222962207e-01,4.168413031053535001e-01,3.577189305899537985e-01,2.985965580745540970e-01,2.394741855591542568e-01,2.152791007811011570e-01,2.339493236807009824e-01,2.526195465803009466e-01,2.712897694799009107e-01,2.523655299422113973e-01,2.212484917762114478e-01,1.901314536102115260e-01,1.599669778370484130e-01,1.444084587540484521e-01,1.288499396710484912e-01,1.132914205880485303e-01,1.285959230329583036e-01,1.970534069981581815e-01,2.655108909633580594e-01,3.339683749285574654e-01,3.165047310598846364e-01,2.573823585444847684e-01,1.982599860290852889e-01,1.391376135136854209e-01,1.592684320823013477e-01,1.810503587985011487e-01,2.028322855147011161e-01,2.157236298977583400e-01,2.063885184479584134e-01,1.970534069981584313e-01,1.877182955483584492e-01,2.115323553692762815e-01,2.582079126182761919e-01,3.048834698672761023e-01,3.515590271162760128e-01,3.144090937956436349e-01,2.677335365466443351e-01,2.210579792976444524e-01,1.820029211913380962e-01,1.726678097415381141e-01,1.633326982917381598e-01,1.539975868419381777e-01,1.843525750936686469e-01,2.528100590588676089e-01,3.212675430240674590e-01,3.897250269892673646e-01,5.343875023814050884e-01,6.961961008446047039e-01,8.580046993078043194e-01,9.771385025719208084e-01,7.904362735759211667e-01,6.037340445799215249e-01,4.170318155839219942e-01,2.770051438369217078e-01,1.992125484219218756e-01,1.214199530069220434e-01,4.362735759192321039e-02,9.385914777417823929e-02,1.903219660887780218e-01,2.867847844033778459e-01,3.766431701276435895e-01,3.112973899790437704e-01,2.459516098304447562e-01,1.806058296818449094e-01,1.249761859401794378e-01,8.763574014097952336e-02,5.029529434177959502e-02,1.295484854257968055e-02,6.502825935098600907e-02,1.646027814821857949e-01,2.641773036133855945e-01,3.637518257445853664e-01,3.140915729980317539e-01,2.580809042992318614e-01,2.020702356004319966e-01,1.790817298533044222e-01,2.475392138185043001e-01,3.159966977837041502e-01,3.844541817489040003e-01,3.906775893821047840e-01,3.502254397663048802e-01,3.097732901505054759e-01,2.693211405347055720e-01,2.534451006540929807e-01,2.409982853876930231e-01,2.285514701212930655e-01,2.138185051120850000e-01,1.889248745792853623e-01,1.640312440464854471e-01,1.391376135136854764e-01,1.462500793801989607e-01,1.867022289959988646e-01,2.271543786117987684e-01,2.676065282275986723e-01,2.585254334158890721e-01,2.367435066996888549e-01,2.149615799834891927e-01,1.963548612434112273e-01,2.056899726932113204e-01,2.150250841430111914e-01,2.243601955928112845e-01,2.413158061853046821e-01,2.693211405347050169e-01,2.973264748841045746e-01,3.253318092335041323e-01,3.088842319171908324e-01,2.746554899345913792e-01,2.404267479519909823e-01,2.072140725217499480e-01,2.227725916047501031e-01,2.383311106877498697e-01,2.538896297707496363e-01,2.613196164348765560e-01,2.519845049850766849e-01,2.426493935352765918e-01,2.333142820854767208e-01,2.023242522385227393e-01,1.587603988061222493e-01,1.151965453737229250e-01,7.163269194132246276e-02,6.604432590334671782e-02,6.293262208674668678e-02,5.982091827014673902e-02,7.347431256747152806e-02,1.388200927160722631e-01,2.041658728646712495e-01,2.695116530132720123e-01,2.731313901060528071e-01,2.264558328570522583e-01,1.797802756080529862e-01,1.331047183590536864e-01,1.344383057090238476e-01,1.437734171588237186e-01,1.531085286086238118e-01,1.609195402298850552e-01,1.609195402298850552e-01,1.609195402298850552e-01,1.609195402298850552e-01,1.667619229059502384e-01,1.792087381723500294e-01,1.916555534387501813e-01,2.041023687051499724e-01,2.382676065282264832e-01,2.787197561440269422e-01,3.191719057598263465e-01,3.504794564043950955e-01,2.789102686225961580e-01,2.073410808407953887e-01,1.357718930589964790e-01,9.798691814313795212e-02,1.135454372261381351e-01,1.291039563091379017e-01,1.446624753921380568e-01,1.580618530513746289e-01,1.705086683177747808e-01,1.829554835841745719e-01,1.954022988505747238e-01
1.159420289855072478e-01,1.983345343902634117e-01,2.807270397950195617e-01,3.631195451997757395e-01,4.022740011209864908e-01,3.434222115461605940e-01,2.845704219713348082e-01,2.257186323965089947e-01,2.101048923052286077e-01,2.218752502201937760e-01,2.336456081351589442e-01,2.454159660501241125e-01,2.463768115942029102e-01,2.463768115942029102e-01,2.463768115942029102e-01,2.498999119224918075e-01,2.655937224757786708e-01,2.812875330290655618e-01,2.969813435823524528e-01,3.314116422451756638e-01,3.824165265433581706e-01,4.334214108415405109e-01,4.844262951397227956e-01,4.172471775162143737e-01,3.270077668348148059e-01,2.367683561534152936e-01,1.622227560253022283e-01,1.818400192169108143e-01,2.014572824085194003e-01,2.210745456001280695e-01,2.389302586275922902e-01,2.546240691808790979e-01,2.703178797341660444e-01,2.860116902874529354e-01,2.631916086155819401e-01,2.278805348706863243e-01,1.925694611257907640e-01,1.642245175754659114e-01,2.426935703419005330e-01,3.211626231083350991e-01,3.996316758747697762e-01,4.363039474737770984e-01,4.009928737288814826e-01,3.656817999839859223e-01,3.303707262390905841e-01,3.214829049563615593e-01,3.254063575946832820e-01,3.293298102330050048e-01,3.332532628713267275e-01,3.256465689807030439e-01,3.177996637040596539e-01,3.099527584274161529e-01,3.088317719593241528e-01,3.245255825126109883e-01,3.402193930658978793e-01,3.559132036191848258e-01,3.785731443670427576e-01,4.060373128352948724e-01,4.335014813035469872e-01,4.609656497717991019e-01,4.144447113459844845e-01,3.595163744094809766e-01,3.045880374729767470e-01,2.464568820562100249e-01,1.758347345664188488e-01,1.052125870766277005e-01,3.459043958683655218e-02,6.405636960525261381e-02,1.896068540315463402e-01,3.151573384578417181e-01,4.407078228841371237e-01,5.822723997117456030e-01,7.274401473296495668e-01,8.726078949475535307e-01,9.764592841700721060e-01,7.842101048923072470e-01,5.919609256145423881e-01,3.997117463367776402e-01,3.268476259108010762e-01,4.131635839538791988e-01,4.994795419969572658e-01,5.857955000400342227e-01,5.193370165745868627e-01,3.977099847866132354e-01,2.760829529986395525e-01,1.605412763231642559e-01,1.880054447914163707e-01,2.154696132596681246e-01,2.429337817279202394e-01,2.363680038433828290e-01,1.657458563535916807e-01,9.512370886380053236e-02,2.450156137400938405e-02,7.174313395788131653e-02,1.815998078308897756e-01,2.914564817038982625e-01,4.013131555769067216e-01,3.832172311634239881e-01,3.596765153334935960e-01,3.361357995035632040e-01,3.157178316918889949e-01,3.039474737769238266e-01,2.921771158619586584e-01,2.804067579469934346e-01,2.932981023300502699e-01,3.246857234366241074e-01,3.560733445431975563e-01,3.874609656497713939e-01,3.534310192969818409e-01,3.102730402754428352e-01,2.671150612539037739e-01,2.419729361838414694e-01,2.969012731203449773e-01,3.518296100568492069e-01,4.067579469933534364e-01,4.078789334614466577e-01,3.529505965249424282e-01,2.980222595884381986e-01,2.430939226519339968e-01,2.662342861718305365e-01,3.093922651933701529e-01,3.525502442149086035e-01,3.897029385859560047e-01,3.740091280326688916e-01,3.583153174793821671e-01,3.426215069260950541e-01,3.525502442149083815e-01,3.996316758747697762e-01,4.467131075346299496e-01,4.937945391944901230e-01,4.343822563856201691e-01,3.323724877892565432e-01,2.303627191928901974e-01,1.318760509248127488e-01,2.024981984146048686e-01,2.731203459043951010e-01,3.437424933941853333e-01,3.733685643366166373e-01,3.184402274001131294e-01,2.635118904636081782e-01,2.085835535271046703e-01,1.710305068460252209e-01,1.435663383777727453e-01,1.161021699095209775e-01,8.863800144126850189e-02,2.011370005604910527e-01,3.227640323484662899e-01,4.443910641364384184e-01,5.237408919849481093e-01,4.727360076867648808e-01,4.217311233885830402e-01,3.707262390903998672e-01,3.435022820081672923e-01,3.356553767315237358e-01,3.278084714548804013e-01,3.199615661782370113e-01,3.793738489871079644e-01,4.499959964768981968e-01,5.206181439666902611e-01,5.694611257906968538e-01,5.066858835775484016e-01,4.439106413644015037e-01,3.811353991512546058e-01,3.791336376010883691e-01,4.458323324525568787e-01,5.125310273040272202e-01,5.792297221554957298e-01,5.881175434382258649e-01,5.802706381615823084e-01,5.724237328849388629e-01,5.632957002161903537e-01,5.397549843862603502e-01,5.162142685563296807e-01,4.926735527263996217e-01,4.523981103370984247e-01,3.856994154856281387e-01,3.190007206341596291e-01,2.523020257826892876e-01,2.591080150532460991e-01,2.983425414364639372e-01,3.375770678196807206e-01,3.768115942028985588e-01
5.540540540540540571e-01,5.467373450798864720e-01,5.394206361057189980e-01,5.321039271315514130e-01,5.203076004180976488e-01,4.983574734955950047e-01,4.764073465730924162e-01,4.544572196505898276e-01,4.078691951620128653e-01,3.456771688815887811e-01,2.834851426011647524e-01,2.212931163207407237e-01,2.498133492608630435e-01,2.863968941317007744e-01,3.229804390025383665e-01,3.456025085859339985e-01,3.199940271763476729e-01,2.943855457667612918e-01,2.687770643571748552e-01,2.606390921308048281e-01,2.679558011049723576e-01,2.752725100791398871e-01,2.825892190533074166e-01,3.266387934896221590e-01,3.778557563087948656e-01,4.290727191279675723e-01,4.604300433029716033e-01,3.726295356129613046e-01,2.848290279229509503e-01,1.970285202329403185e-01,1.700014932059130957e-01,2.175601015380018710e-01,2.651187098700909517e-01,3.126773182021800324e-01,3.768105121696277982e-01,4.463192474242195229e-01,5.158279826788112477e-01,5.759295206809024181e-01,4.917873674779755788e-01,4.076452142750487395e-01,3.235030610721219002e-01,2.662386143049126908e-01,2.552635508436613687e-01,2.442884873824100467e-01,2.333134239211588079e-01,2.494400477825891027e-01,2.787068836792593318e-01,3.079737195759293389e-01,3.372405554725995125e-01,3.270867552635508546e-01,3.161116918022996436e-01,3.051366283410483216e-01,2.983425414364641037e-01,3.020008959235478407e-01,3.056592504106315777e-01,3.093176048977153703e-01,3.043153650888458239e-01,2.933403016275945019e-01,2.823652381663431798e-01,2.713901747050918578e-01,3.096909063759892278e-01,3.535911602209939608e-01,3.974914140659993045e-01,4.182469762580265371e-01,3.487382410034348124e-01,2.792295057488430321e-01,2.097207704942512796e-01,1.775421830670449452e-01,1.812005375541286822e-01,1.848588920412124470e-01,1.885172465282962395e-01,3.683738987606379189e-01,5.878751679856644152e-01,8.073764372106910781e-01,9.798417201732139148e-01,8.152157682544440842e-01,6.505898163356741426e-01,4.859638644169042010e-01,4.091384201881437255e-01,4.493803195460652766e-01,4.896222189039868278e-01,5.298641182619078238e-01,4.867851276691063100e-01,4.136180379274307928e-01,3.404509481857552755e-01,2.728087203225322277e-01,3.350007466029564229e-01,3.971927728833797855e-01,4.593847991638039807e-01,4.796923995819029063e-01,4.211587277885624481e-01,3.626250559952221009e-01,3.040913842018816426e-01,2.790055248618785733e-01,2.716888158877109882e-01,2.643721069135434587e-01,2.570553979393758737e-01,2.848290279229503397e-01,3.140958638196205688e-01,3.433626997162907979e-01,3.706883679259366793e-01,3.926384948484393234e-01,4.145886217709419674e-01,4.365387486934446670e-01,4.083171569359418940e-01,3.424667761684339062e-01,2.766163954009268622e-01,2.107660146334188467e-01,2.187546662684782262e-01,2.370464387038971055e-01,2.553382111393159848e-01,2.749738688965207012e-01,3.005823503061068047e-01,3.261908317156931858e-01,3.517993131252796224e-01,3.487382410034347568e-01,3.158130506196807352e-01,2.828878602359267691e-01,2.499626698521728030e-01,2.374197401821712683e-01,2.301030312080036000e-01,2.227863222338361537e-01,2.218157383903227309e-01,2.766910556965800905e-01,3.315663730028359790e-01,3.864416903090933664e-01,4.054800657010607101e-01,3.725548753173062999e-01,3.396296849335527224e-01,3.067044945497992003e-01,2.607137524264600548e-01,2.094967896072878477e-01,1.582798267881143084e-01,1.086307301776911205e-01,1.342392115872778902e-01,1.598476929968639937e-01,1.854561744064500695e-01,1.967298790503211880e-01,1.784381066149025585e-01,1.601463341794834294e-01,1.418545617440647721e-01,1.582798267881131427e-01,1.948633716589514009e-01,2.314469165297886599e-01,2.680304614006269182e-01,2.908765118709866204e-01,3.128266387934895976e-01,3.347767657159919641e-01,3.280573391070653044e-01,2.329401224428858663e-01,1.378229057787089262e-01,4.270568911452948813e-02,7.861729132447115020e-02,2.212931163207402796e-01,3.639689413170056342e-01,5.066447663132710444e-01,4.737195759295212416e-01,4.115275496490978790e-01,3.493355233686729067e-01,2.943108854711067868e-01,2.760191130356876577e-01,2.577273406002690281e-01,2.394355681648503986e-01,2.589219053307445506e-01,3.211139316111679687e-01,3.833059578915929411e-01,4.454979841720163591e-01,4.339256383455287747e-01,4.010004479617743645e-01,3.680752575780207869e-01,3.342541436464092075e-01,2.903538898014044745e-01,2.464536359563985757e-01,2.025533821113938426e-01,1.898611318500811607e-01,2.264446767209193911e-01,2.630282215917566502e-01,2.996117664625949084e-01,2.854263102881894332e-01,2.488427654173512027e-01,2.122592205465139159e-01,1.756756756756756854e-01
3.333333333333333148e-01,3.071347947484108776e-01,2.809362561634883848e-01,2.547377175785658920e-01,2.240836452206974583e-01,1.833303629774847288e-01,1.425770807342719992e-01,1.018237984910592697e-01,9.849699994059286923e-02,1.188736410621992479e-01,1.392502821838056126e-01,1.596269233054119496e-01,1.479237212618071673e-01,1.333689776035169028e-01,1.188142339452266660e-01,1.140616645874175661e-01,1.431711519039980673e-01,1.722806392205785408e-01,2.013901265371591254e-01,2.243212736885878411e-01,2.417869660785361974e-01,2.592526584684844981e-01,2.767183508584327711e-01,2.162419057803125488e-01,1.405572387572032733e-01,6.487257173409399780e-02,1.621814293352325659e-02,1.297451434681871629e-01,2.432721440028510762e-01,3.567991445375153226e-01,3.971365769619200625e-01,3.476504485237333908e-01,2.981643200855463860e-01,2.486781916473594090e-01,2.255688231450128645e-01,2.110140794867225722e-01,1.964593358284322799e-01,1.858254618903341648e-01,2.353115903285211419e-01,2.847977187667081189e-01,3.342838472048951237e-01,3.559674448998991214e-01,3.297689063149766286e-01,3.035703677300540804e-01,2.773718291451316986e-01,2.452919859799205238e-01,2.103606012000238112e-01,1.754292164201273208e-01,1.404978316402306360e-01,1.683003623834134488e-01,1.974098496999938390e-01,2.265193370165744513e-01,2.389948315808234636e-01,2.098853442642430733e-01,1.807758569476624888e-01,1.516663696310819043e-01,1.863007188261147085e-01,2.648963345808822423e-01,3.434919503356498316e-01,4.220875660904174209e-01,3.673736113586408281e-01,2.975108417988483467e-01,2.276480722390549494e-01,1.720430107526881858e-01,1.720430107526881858e-01,1.720430107526881858e-01,1.720430107526881858e-01,2.032317471633101613e-01,2.643616705281285895e-01,3.254915938929477948e-01,3.866215172577670556e-01,5.309214043842442887e-01,6.939345333570956509e-01,8.569476623299469020e-01,9.800392086972039563e-01,8.170260797243527051e-01,6.540129507515014540e-01,4.909998217786502028e-01,3.853739678013426984e-01,3.562644804847621693e-01,3.271549931681815848e-01,2.980455058516013889e-01,2.582427374799505237e-01,2.145785065050796747e-01,1.709142755302087702e-01,1.292698865324065638e-01,1.350917839957226640e-01,1.409136814590387088e-01,1.467355789223548368e-01,1.858848690073061083e-01,2.877680746153381541e-01,3.896512802233702000e-01,4.915344858314022458e-01,4.983663042832537360e-01,4.547020733083829147e-01,4.110378423335120379e-01,3.673736113586411611e-01,3.348779183746214971e-01,3.028574823263828764e-01,2.708370462781442001e-01,2.442226578744135235e-01,2.325788629477812952e-01,2.209350680211490670e-01,2.092912730945168387e-01,2.126180716449829755e-01,2.271728153032732678e-01,2.417275589615633657e-01,2.562823026198536303e-01,2.223014317115195038e-01,1.815481494683067187e-01,1.407948672250938782e-01,1.091308738786906235e-01,1.178637200736646767e-01,1.265965662686388549e-01,1.353294124636130191e-01,1.540426543099860102e-01,1.831521416265665947e-01,2.122616289431471792e-01,2.413711162597277637e-01,2.449949503950573926e-01,2.420840016633992731e-01,2.391730529317412646e-01,2.392324600487132358e-01,2.654309986336360616e-01,2.916295372185582768e-01,3.178280758034811027e-01,3.024416325075756085e-01,2.267569654844650839e-01,1.510722984613565578e-01,7.538763143824805946e-02,9.534842274104390891e-02,1.535673973742043008e-01,2.117863720073662470e-01,2.679260975464867189e-01,2.242618665716152870e-01,1.805976355967449654e-01,1.369334046218746992e-01,1.217845897938569788e-01,1.654488207687272727e-01,2.091130517435987324e-01,2.527772827184689985e-01,2.522426186657168445e-01,2.260440800807939632e-01,1.998455414958718035e-01,1.736470029109489221e-01,2.157666488445307562e-01,2.623418285510603076e-01,3.089170082575886100e-01,3.390958236796773884e-01,3.187191825580706905e-01,2.983425414364645478e-01,2.779659003148578500e-01,2.704211964593357664e-01,2.733321451909938582e-01,2.762430939226518944e-01,2.791540426543098752e-01,2.521238044317712368e-01,2.201033683835330046e-01,1.880829323352939397e-01,1.665181488742345783e-01,1.985385849224736432e-01,2.305590209707118476e-01,2.625794570189500798e-01,2.713717103308977974e-01,2.539060179409496909e-01,2.364403255510010848e-01,2.189746331610529784e-01,2.714905245648408516e-01,3.442642428562933121e-01,4.170379611477437742e-01,4.769797421731130638e-01,3.925622289550304567e-01,3.081447157369456846e-01,2.237272025188630775e-01,1.810728925325247873e-01,2.043604823857895492e-01,2.276480722390537004e-01,2.509356620923184900e-01,2.823026198538578502e-01,3.172340046337549513e-01,3.521653894136512197e-01,3.870967741935483764e-01
