1.813186813186813129e-01,1.872381761884524265e-01,1.931576710582235401e-01,1.990771659279946537e-01,2.049966607977657673e-01,2.083662194159431880e-01,2.071823204419889486e-01,2.059984214680347370e-01,2.048145224940804976e-01,2.036306235201262860e-01,2.032967032967032961e-01,2.032967032967032961e-01,2.032967032967032961e-01,2.032967032967032961e-01,2.030234958411754054e-01,1.994717989193127428e-01,1.959201019974500524e-01,1.923684050755873898e-01,1.888167081537247272e-01,1.888774209216198263e-01,1.936130168174367006e-01,1.983486127132536025e-01,2.030842086090705045e-01,2.078198045048873788e-01,2.106733045959565398e-01,2.130411025438649908e-01,2.154089004917734140e-01,2.177766984396818650e-01,2.199623580839050463e-01,2.211462570578592579e-01,2.223301560318134973e-01,2.235140550057677089e-01,2.246979539797219483e-01,2.270961083115779211e-01,2.306478052334406115e-01,2.341995021553032741e-01,2.377511990771659367e-01,2.413028959990285993e-01,2.427903588124582512e-01,2.439742577864124906e-01,2.451581567603667022e-01,2.463420557343209416e-01,2.467063323416914533e-01,2.443385343937830023e-01,2.419707364458745791e-01,2.396029384979661281e-01,2.372351405500576771e-01,2.250925869710398985e-01,2.061502033877724294e-01,1.872078198045049324e-01,1.682654362212372967e-01,1.493230526379696610e-01,1.404893449092343982e-01,1.322020520915548891e-01,1.239147592738752829e-01,1.156274664561956905e-01,1.106186631048509533e-01,1.129864610527593904e-01,1.153542590006678414e-01,1.177220569485762924e-01,1.200898548964847296e-01,1.437678343755690868e-01,1.781009046202416957e-01,2.124339748649142767e-01,2.467670451095865802e-01,2.805233440592556082e-01,2.923623337987978910e-01,3.042013235383401737e-01,3.160403132778823454e-01,3.278793030174245171e-01,3.347094894056219516e-01,3.335255904316677400e-01,3.323416914577135284e-01,3.311577924837593168e-01,3.299738935098051051e-01,3.261489891324145241e-01,3.214133932365976776e-01,3.166777973407807756e-01,3.119422014449638181e-01,3.019853075101690543e-01,2.463420557343208306e-01,1.906988039584726069e-01,1.350555521826243555e-01,7.941230040677521584e-02,5.108979418371684122e-02,5.464149110557949690e-02,5.819318802744220809e-02,6.174488494930486376e-02,6.529658187116751944e-02,2.310727946087057783e-01,4.323356201809228083e-01,6.335984457531431691e-01,8.348612713253601436e-01,9.796005099872505673e-01,8.659462084876438093e-01,7.522919069880388276e-01,6.386376054884339570e-01,5.249833039888289754e-01,4.463906259486372652e-01,3.978507680165135341e-01,3.493109100843906356e-01,3.007710521522677372e-01,2.522311942201440060e-01,2.366280128711067410e-01,2.247890231315645415e-01,2.129500333920223698e-01,2.011110436524801981e-01,1.913970007892659697e-01,1.878453038674033071e-01,1.842936069455406722e-01,1.807419100236779541e-01,1.771902131018152915e-01,1.721814097504705265e-01,1.662619148806994407e-01,1.603424200109283271e-01,1.544229251411571580e-01,1.485034302713860721e-01,1.448910205816283103e-01,1.413393236597656200e-01,1.377876267379029573e-01,1.342359298160402947e-01,1.279218019549511476e-01,1.160828122154089759e-01,1.042438224758665960e-01,9.240483273632441041e-02,8.056584299678223871e-02,7.200534272357470011e-02,6.490194887984938876e-02,5.779855503612407741e-02,5.069516119239877300e-02,4.347034181288330495e-02,3.399915002124940383e-02,2.452795822961566230e-02,1.505676643798192077e-02,5.585574646348019645e-03,2.428510715803576178e-03,8.348005585574663767e-03,1.426750045534575309e-02,2.018699532511684241e-02,2.610649019488802888e-02,3.202598506465911821e-02,3.794547993443020406e-02,4.386497480420138706e-02,4.978446967397247985e-02,5.737356566085853593e-02,7.631594924412601899e-02,9.525833282739350205e-02,1.142007164106612904e-01,1.331430999939287596e-01,1.503551696921862357e-01,1.657458563535913199e-01,1.811365430149959044e-01,1.965272296764009885e-01,2.119179163378060726e-01,2.233015603181348341e-01,2.339566510837229885e-01,2.446117418493111151e-01,2.552668326148989086e-01,2.634934126646834018e-01,2.623095136907291902e-01,2.611256147167749231e-01,2.599417157428207115e-01,2.587578167688664998e-01,2.549025560075283692e-01,2.489830611377573666e-01,2.430635662679861697e-01,2.371440713982150006e-01,2.312245765284439980e-01,2.296764009471191914e-01,2.284925019731649520e-01,2.273086029992107404e-01,2.261247040252565010e-01,2.252747252747252793e-01,2.252747252747252793e-01,2.252747252747252793e-01,2.252747252747252793e-01,2.252747252747252793e-01,2.252747252747252793e-01,2.252747252747252793e-01,2.252747252747252793e-01,2.252747252747252793e-01,2.252747252747252793e-01
3.973214285714285476e-01,3.963595106550907299e-01,3.953975927387529676e-01,3.944356748224151499e-01,3.934737569060773321e-01,3.911306235201262860e-01,3.863210339384372527e-01,3.815114443567482194e-01,3.767018547750591861e-01,3.718922651933701529e-01,3.698451065509076874e-01,3.688831886345698696e-01,3.679212707182320519e-01,3.669593528018942341e-01,3.660714285714285476e-01,3.660714285714285476e-01,3.660714285714285476e-01,3.660714285714285476e-01,3.660714285714285476e-01,3.660714285714285476e-01,3.660714285714285476e-01,3.660714285714285476e-01,3.660714285714285476e-01,3.660714285714285476e-01,3.668360299921073486e-01,3.677979479084451109e-01,3.687598658247829286e-01,3.697217837411207464e-01,3.712756511444356700e-01,3.760852407261247032e-01,3.808948303078137365e-01,3.857044198895027698e-01,3.905140094711918031e-01,3.933504340962904466e-01,3.943123520126282644e-01,3.952742699289660266e-01,3.962361878453038444e-01,3.971981057616416622e-01,3.989986187845303567e-01,4.009224546172059922e-01,4.028462904498816277e-01,4.047701262825572077e-01,4.058060378847671568e-01,4.038822020520915212e-01,4.019583662194159412e-01,4.000345303867403057e-01,3.981106945540646702e-01,3.905140094711916920e-01,3.789709944751381010e-01,3.674279794790844544e-01,3.558849644830307524e-01,3.443419494869770503e-01,3.327989344909234593e-01,3.212559194948698127e-01,3.097129044988161106e-01,2.981698895027624086e-01,2.881067482241515543e-01,2.813733228097869410e-01,2.746398973954222722e-01,2.679064719810576034e-01,2.611730465666929901e-01,2.807320441988949700e-01,3.134372533543804962e-01,3.461424625098660224e-01,3.788476716653512710e-01,4.108129439621152068e-01,4.146606156274664223e-01,4.185082872928176934e-01,4.223559589581689089e-01,4.262036306235200689e-01,4.304212707182320519e-01,4.352308602999210851e-01,4.400404498816101184e-01,4.448500394632990962e-01,4.496596290449881850e-01,4.480317679558010746e-01,4.441840962904498591e-01,4.403364246250986991e-01,4.364887529597474281e-01,4.291880426203628640e-01,3.916732438831885821e-01,3.541584451460143002e-01,3.166436464088400182e-01,2.791288476716651257e-01,2.331787687450669888e-01,1.773875295974745026e-01,1.215962904498810448e-01,6.580505130228853083e-02,1.001381215469601682e-02,1.767955801104967861e-01,3.922651933701644111e-01,6.077348066298355889e-01,8.232044198895032139e-01,9.844613259668509864e-01,8.978887134964473882e-01,8.113161010260452333e-01,7.247434885556430784e-01,6.381708760852409235e-01,5.738703630623522844e-01,5.286602209944748498e-01,4.834500789265981924e-01,4.382399368587214794e-01,3.930297947908440448e-01,3.780337411207576048e-01,3.664907261247040138e-01,3.549477111286503672e-01,3.434046961325967207e-01,3.343281373322809502e-01,3.324043014996053702e-01,3.304804656669297347e-01,3.285566298342540992e-01,3.266327940015785192e-01,3.217492107340173546e-01,3.150157853196527413e-01,3.082823599052881280e-01,3.015489344909234037e-01,2.948155090765587905e-01,2.946428571428571508e-01,2.946428571428571508e-01,2.946428571428571508e-01,2.946428571428571508e-01,2.914364640883977953e-01,2.818172849250197842e-01,2.721981057616416066e-01,2.625789265982635956e-01,2.529597474348855846e-01,2.453383977900551738e-01,2.386049723756905605e-01,2.318715469613259472e-01,2.251381215469613339e-01,2.183553670086819665e-01,2.106600236779794244e-01,2.029646803472769934e-01,1.952693370165745901e-01,1.875739936858720480e-01,1.846142462509866022e-01,1.884619179163378178e-01,1.923095895816890333e-01,1.961572612470402488e-01,2.000049329123915198e-01,2.038526045777427076e-01,2.077002762430939231e-01,2.115479479084451941e-01,2.153956195737964097e-01,2.197365824782952226e-01,2.274319258089976259e-01,2.351272691397000292e-01,2.428226124704025712e-01,2.505179558011049745e-01,2.628995659037094978e-01,2.802140883977902175e-01,2.975286108918703820e-01,3.148431333859511017e-01,3.321576558800318213e-01,3.405189423835832119e-01,3.472523677979479362e-01,3.539857932123126605e-01,3.607192186266771627e-01,3.664660615627466367e-01,3.683898973954222167e-01,3.703137332280978522e-01,3.722375690607734877e-01,3.741614048934490677e-01,3.722868981846881864e-01,3.674773086029992641e-01,3.626677190213101754e-01,3.578581294396211421e-01,3.530485398579321643e-01,3.544544198895027698e-01,3.563782557221784053e-01,3.583020915548539853e-01,3.602259273875296208e-01,3.602505919494868869e-01,3.554410023677979646e-01,3.506314127861088759e-01,3.458218232044199536e-01,3.410122336227308648e-01,3.417521704814523442e-01,3.455998421468034487e-01,3.494475138121547197e-01,3.532951854775058798e-01,3.571428571428571508e-01
2.147239263803681075e-01,2.200115242517710068e-01,2.252991221231739338e-01,2.305867199945768331e-01,2.358743178659797324e-01,2.387892756668813510e-01,2.374673761990306053e-01,2.361454767311798875e-01,2.348235772633291418e-01,2.335016777954784239e-01,2.378741144968308241e-01,2.444836118360844412e-01,2.510931091753380584e-01,2.577026065145917033e-01,2.638036809815950678e-01,2.638036809815950678e-01,2.638036809815950678e-01,2.638036809815950678e-01,2.638036809815950678e-01,2.626512558044944434e-01,2.600074568687930077e-01,2.573636579330915164e-01,2.547198589973900806e-01,2.520760600616886449e-01,2.525844829339389253e-01,2.539063824017896431e-01,2.552282818696403610e-01,2.565501813374911344e-01,2.572619733586414825e-01,2.546181744229400468e-01,2.519743754872386110e-01,2.493305765515371197e-01,2.466867776158356840e-01,2.474324644951360896e-01,2.513981628986882710e-01,2.553638613022404247e-01,2.593295597057926338e-01,2.632952581093447875e-01,2.603464054502931946e-01,2.563807070467409854e-01,2.524150086431888318e-01,2.484493102396366504e-01,2.450937192827848110e-01,2.437718198149340654e-01,2.424499203470833475e-01,2.411280208792326296e-01,2.398061214113819117e-01,2.267904958817746341e-01,2.056401043961630926e-01,1.844897129105515232e-01,1.633393214249397873e-01,1.421889299393280792e-01,1.335796359692234536e-01,1.256482391621191186e-01,1.177168423550147280e-01,1.097854455479103375e-01,1.034810019320069052e-01,1.008372029963054695e-01,9.819340406060399207e-02,9.554960512490252855e-02,9.290580618920109279e-02,1.175812629224145534e-01,1.559163474900858160e-01,1.942514320577570508e-01,2.325865166254279803e-01,2.700403348811984960e-01,2.740060332847507052e-01,2.779717316883029143e-01,2.819374300918550680e-01,2.859031284954072216e-01,2.908856726434599915e-01,2.974951699827136364e-01,3.041046673219672813e-01,3.107141646612208707e-01,3.173236620004745157e-01,3.111547978171710360e-01,3.005796020743652930e-01,2.900044063315595499e-01,2.794292105887535849e-01,2.642443141375450111e-01,2.087245364878146936e-01,1.532047588380843761e-01,9.768498118835405863e-02,4.216520353862285297e-02,2.813273226451554199e-02,6.250211842863430400e-02,9.687150459275362113e-02,1.312408907568723970e-01,1.656102769209911729e-01,3.182049283123746797e-01,4.966613564722220375e-01,6.751177846320723930e-01,8.535742127919198063e-01,9.822051994712404088e-01,8.830627393824346250e-01,7.839202792936305064e-01,6.847778192048263879e-01,5.856353591160222694e-01,5.035759075348273939e-01,4.361590346744394497e-01,3.687421618140526713e-01,3.013252889536658374e-01,2.339084160932779488e-01,2.163169847134188972e-01,2.044198895027624086e-01,1.925227942921059199e-01,1.806256990814494312e-01,1.717791411042944860e-01,1.717791411042944860e-01,1.717791411042944860e-01,1.717791411042944860e-01,1.717791411042944860e-01,1.660848049350913402e-01,1.568315086601362873e-01,1.475782123851812344e-01,1.383249161102260150e-01,1.290716198352709621e-01,1.236823373894180428e-01,1.183947395180150602e-01,1.131071416466121748e-01,1.078195437752092756e-01,1.025319459038063902e-01,9.724434803240350478e-02,9.195675016100053611e-02,8.666915228959765072e-02,8.138155441819476532e-02,7.334847303664024376e-02,6.409517676168519085e-02,5.484188048673013793e-02,4.558858421177508502e-02,3.647086736942009577e-02,2.986137003016637800e-02,2.325187269091277126e-02,1.664237535165916104e-02,1.003287801240544327e-02,5.592651594753066807e-03,4.270752126902345458e-03,2.948852659051623241e-03,1.626953191200901892e-03,3.050537233501579917e-04,1.016845744500563574e-03,2.338745212351285140e-03,3.660644680202028607e-03,4.982544148052749956e-03,8.338135104904642256e-03,2.552282818696402153e-02,4.270752126902340601e-02,5.989221435108306457e-02,7.707690743314245252e-02,9.748161203945360231e-02,1.212758024607669821e-01,1.450699928820795848e-01,1.688641833033929784e-01,1.926583737247063444e-01,2.052672609565128481e-01,2.158424566993187854e-01,2.264176524421247505e-01,2.369928481849303270e-01,2.456699318713351232e-01,2.469918313391858411e-01,2.483137308070365590e-01,2.496356302748873046e-01,2.509575297427379947e-01,2.463139341761853840e-01,2.370606379012304976e-01,2.278073416262752782e-01,2.185540453513200865e-01,2.093007490763652001e-01,2.171304613090194457e-01,2.263837575839746652e-01,2.356370538589295516e-01,2.448903501338847710e-01,2.485509948140864900e-01,2.379757990712808857e-01,2.274006033284749484e-01,2.168254075856693441e-01,2.062502118428634068e-01,2.083855879063147565e-01,2.176388841812696706e-01,2.268921804562248623e-01,2.361454767311797487e-01,2.453987730061349681e-01
2.721088435374149905e-01,2.823693013116849171e-01,2.926297590859548436e-01,3.028902168602247702e-01,3.131506746344946968e-01,3.155184725824031200e-01,3.037922351260946563e-01,2.920659976697861371e-01,2.803397602134776734e-01,2.686135227571692097e-01,2.726726049535836416e-01,2.829330627278535681e-01,2.931935205021234947e-01,3.034539782763934213e-01,3.128124177847934617e-01,3.113466381027549246e-01,3.098808584207163874e-01,3.084150787386777948e-01,3.069492990566392576e-01,3.061224489795918435e-01,3.061224489795918435e-01,3.061224489795918435e-01,3.061224489795918435e-01,3.061224489795918435e-01,3.119479836133348671e-01,3.192768820235276639e-01,3.266057804337204606e-01,3.339346788439132574e-01,3.399105498553012250e-01,3.384447701732626879e-01,3.369789904912240952e-01,3.355132108091855581e-01,3.340474311271469654e-01,3.355883789980080301e-01,3.399857180441236970e-01,3.443830570902394195e-01,3.487803961363550864e-01,3.531777351824708089e-01,3.473522005487277853e-01,3.400233021385349330e-01,3.326944037283421918e-01,3.253655053181493950e-01,3.200661480061637865e-01,3.215319276882023791e-01,3.229977073702409163e-01,3.244634870522794534e-01,3.259292667343179906e-01,3.092419288157249868e-01,2.799263351749539108e-01,2.506107415341828348e-01,2.212951478934114813e-01,1.919795542526401277e-01,1.835231330101101122e-01,1.761942345999173432e-01,1.688653361897244909e-01,1.615364377795316664e-01,1.600706580974931570e-01,1.717968955538016207e-01,1.835231330101101399e-01,1.952493704664186869e-01,2.069756079227271228e-01,2.343368286541134826e-01,2.695155410230390958e-01,3.046942533919647644e-01,3.398729657608901000e-01,3.742999962415905491e-01,3.801631149697448087e-01,3.860262336978991238e-01,3.918893524260533279e-01,3.977524711542075320e-01,3.991054985530123611e-01,3.932423798248581015e-01,3.873792610967038974e-01,3.815161423685496933e-01,3.756530236403953782e-01,3.665200886984627537e-01,3.562596309241928827e-01,3.459991731499229561e-01,3.357387153756529186e-01,3.196151388732283993e-01,2.521892734994548579e-01,1.847634081256813443e-01,1.173375427519078307e-01,4.991167737813317906e-02,6.975607922727124210e-02,1.914157928364713102e-01,3.130755064456734460e-01,4.347352200548735279e-01,5.563949336640735543e-01,6.527981358289169922e-01,7.436764761153074055e-01,8.345548164016993731e-01,9.254331566880897864e-01,9.815837937384900291e-01,8.789792159957895423e-01,7.763746382530907209e-01,6.737700605103917884e-01,5.711654827676928559e-01,4.906603525388059661e-01,4.290976058931856296e-01,3.675348592475662923e-01,3.059721126019469550e-01,2.444093659563266185e-01,2.341489081820573026e-01,2.297515691359416357e-01,2.253542300898259687e-01,2.209568910437103295e-01,2.161837110534821083e-01,2.103205923253279042e-01,2.044574735971736723e-01,1.985943548690193572e-01,1.927312361408651253e-01,1.868681174127109212e-01,1.810049986845566894e-01,1.751418799564024575e-01,1.692787612282481424e-01,1.634156425000939383e-01,1.518397414214304464e-01,1.401135039651218162e-01,1.283872665088133802e-01,1.166610290525049443e-01,1.068891645055812384e-01,1.010260457774270204e-01,9.516292704927270529e-02,8.929980832111847344e-02,8.343668959296425547e-02,7.148494757018812595e-02,5.682715074980257408e-02,4.216935392941702915e-02,2.751155710903147728e-02,1.345510579922578297e-02,1.052354643514862367e-02,7.591987071071513819e-03,4.660427706994402230e-03,1.728868342917244671e-03,0.000000000000000000e+00,0.000000000000000000e+00,0.000000000000000000e+00,0.000000000000000000e+00,0.000000000000000000e+00,7.892659826361515460e-03,1.815311760063140212e-02,2.841357537490145704e-02,3.867403314917134544e-02,5.006201375577861573e-02,6.911714962227984149e-02,8.817228548878106031e-02,1.072274213552825983e-01,1.262825572217838310e-01,1.446235952944713854e-01,1.622129514789343308e-01,1.798023076633966932e-01,1.973916638478596386e-01,2.149810200323226117e-01,2.276092757545006284e-01,2.393355132108092864e-01,2.510617506671179444e-01,2.627879881234261861e-01,2.718081707821249915e-01,2.703423911000864543e-01,2.688766114180479172e-01,2.674108317360093245e-01,2.659450520539707874e-01,2.636524222948847807e-01,2.607208629308077064e-01,2.577893035667305766e-01,2.548577442026533912e-01,2.519261848385763169e-01,2.503476528733040163e-01,2.488818731912654236e-01,2.474160935092268865e-01,2.459503138271883216e-01,2.453113842221971985e-01,2.467771639042357357e-01,2.482429435862743006e-01,2.497087232683128377e-01,2.511745029503514304e-01,2.554590897132334448e-01,2.613222084413875934e-01,2.671853271695419085e-01,2.730484458976960016e-01,2.789115646258503167e-01
2.815533980582524132e-01,2.857372740438770542e-01,2.899211500295016952e-01,2.941050260151262807e-01,2.982889020007509218e-01,3.005953977364158036e-01,2.995494287400096156e-01,2.985034597436034831e-01,2.974574907471972951e-01,2.964115217507911626e-01,2.991203132543045484e-01,3.033041892399291894e-01,3.074880652255538305e-01,3.116719412111784715e-01,3.156948988896637331e-01,3.177868368824759981e-01,3.198787748752883187e-01,3.219707128681006392e-01,3.240626508609129597e-01,3.243308480394786475e-01,3.222389100466663270e-01,3.201469720538540065e-01,3.180550340610416860e-01,3.159630960682293654e-01,3.171968030896314961e-01,3.192887410824438166e-01,3.213806790752561371e-01,3.234726170680684576e-01,3.252427184466019638e-01,3.252427184466019638e-01,3.252427184466019638e-01,3.252427184466019638e-01,3.252427184466019638e-01,3.252427184466019638e-01,3.252427184466019638e-01,3.252427184466019638e-01,3.252427184466019638e-01,3.252427184466019638e-01,3.243308480394786475e-01,3.232848790430724595e-01,3.222389100466663270e-01,3.211929410502601945e-01,3.203883495145631310e-01,3.203883495145631310e-01,3.203883495145631310e-01,3.203883495145631310e-01,3.203883495145631310e-01,3.105186933433459751e-01,2.937831894008475220e-01,2.770476854583490134e-01,2.603121815158504493e-01,2.435766775733518297e-01,2.367644692377836035e-01,2.304886552593466975e-01,2.242128412809097082e-01,2.179370273024727467e-01,2.103738668669205281e-01,1.999141769028590088e-01,1.894544869387973784e-01,1.789947969747357759e-01,1.685351070106742566e-01,1.901517996030680779e-01,2.278066834736899304e-01,2.654615673443117552e-01,3.031164512149332468e-01,3.399399238320012784e-01,3.451697688140321074e-01,3.503996137960628809e-01,3.556294587780936545e-01,3.608593037601244280e-01,3.656868529743066976e-01,3.698707289599313941e-01,3.740546049455559796e-01,3.782384809311806206e-01,3.824223569168052617e-01,3.811618301775465123e-01,3.780239231883280593e-01,3.748860161991096063e-01,3.717481092098910977e-01,3.644263262350477262e-01,3.204956283859893285e-01,2.765649305369308752e-01,2.326342326878724220e-01,1.887035348388132472e-01,1.486348763611006207e-01,1.130719304832913941e-01,7.750898460548159841e-02,4.194603872767237174e-02,6.383092849863158946e-03,1.767955801104967861e-01,3.922651933701644111e-01,6.077348066298355889e-01,8.232044198895032139e-01,9.829158397253663360e-01,8.877326610524047812e-01,7.925494823794447807e-01,6.973663037064847803e-01,6.021831250335247798e-01,5.312181515850455948e-01,4.810116397575494029e-01,4.308051279300540992e-01,3.805986161025587400e-01,3.303921042750624926e-01,3.167945073217829366e-01,3.073807863541275220e-01,2.979670653864721630e-01,2.885533444188167485e-01,2.804806093439896619e-01,2.762967333583650209e-01,2.721128573727404354e-01,2.679289813871157389e-01,2.637451054014911533e-01,2.602049026444241409e-01,2.570669956552056878e-01,2.539290886659872348e-01,2.507911816767687263e-01,2.476532746875502733e-01,2.424770691412326540e-01,2.372472241592017972e-01,2.320173791771710237e-01,2.267875341951402501e-01,2.215576892131095044e-01,2.163278442310787308e-01,2.110979992490478740e-01,2.058681542670171005e-01,2.006383092849863270e-01,1.939601995387007782e-01,1.866384165638577119e-01,1.793166335890146179e-01,1.719948506141715516e-01,1.647267070750416118e-01,1.584508930966045948e-01,1.521750791181676610e-01,1.458992651397307272e-01,1.396234511612937101e-01,1.354932146113822788e-01,1.344472456149761186e-01,1.334012766185699583e-01,1.323553076221638258e-01,1.313093386257576378e-01,1.358955103792308383e-01,1.421713243576677443e-01,1.484471383361047891e-01,1.547229523145416952e-01,1.616692592393928485e-01,1.731749181998605280e-01,1.846805771603282076e-01,1.961862361207960814e-01,2.076918950812637887e-01,2.207262779595558500e-01,2.353698439092422323e-01,2.500134098589281706e-01,2.646569758086145252e-01,2.793005417583009353e-01,2.904039049509198334e-01,3.008635949149816025e-01,3.113232848790432605e-01,3.217829748431046410e-01,3.300970873786407966e-01,3.300970873786407966e-01,3.300970873786407966e-01,3.300970873786407966e-01,3.300970873786407966e-01,3.289170197929517925e-01,3.268250818001395275e-01,3.247331438073271515e-01,3.226412058145148309e-01,3.205492678217025659e-01,3.203883495145631310e-01,3.203883495145631310e-01,3.203883495145631310e-01,3.203883495145631310e-01,3.203883495145631310e-01,3.203883495145631310e-01,3.203883495145631310e-01,3.203883495145631310e-01,3.203883495145631310e-01,3.203883495145631310e-01,3.203883495145631310e-01,3.203883495145631310e-01,3.203883495145631310e-01,3.203883495145631310e-01
7.161290322580645684e-01,7.175191587952236549e-01,7.189092853323828525e-01,7.202994118695419390e-01,7.216895384067011365e-01,6.666904295134556957e-01,5.109962573516306783e-01,3.553020851898057164e-01,1.996079130279807545e-01,4.391374086615573713e-02,1.127784708608091518e-01,2.698627695597932696e-01,4.269470682587774291e-01,5.840313669577615885e-01,7.290857244697914741e-01,7.297807877383710728e-01,7.304758510069506716e-01,7.311709142755302704e-01,7.318659775441098692e-01,7.325610408126893569e-01,7.332561040812689557e-01,7.339511673498485544e-01,7.346462306184280422e-01,7.353412938870076410e-01,7.349313847798966126e-01,7.342363215113170138e-01,7.335412582427375261e-01,7.328461949741579273e-01,7.322580645161290702e-01,7.322580645161290702e-01,7.322580645161290702e-01,7.322580645161290702e-01,7.322580645161290702e-01,7.322580645161290702e-01,7.322580645161290702e-01,7.322580645161290702e-01,7.322580645161290702e-01,7.322580645161290702e-01,7.322580645161290702e-01,7.322580645161290702e-01,7.322580645161290702e-01,7.322580645161290702e-01,7.311352700053467268e-01,7.262698271252896465e-01,7.214043842452325661e-01,7.165389413651755968e-01,7.116734984851185164e-01,7.031188736410621809e-01,6.919978613437890447e-01,6.808768490465157974e-01,6.697558367492425502e-01,6.586348244519693029e-01,6.527891641418641644e-01,6.472286579932275963e-01,6.416681518445909171e-01,6.361076456959543490e-01,6.371769738014614326e-01,6.531634289787915382e-01,6.691498841561218658e-01,6.851363393334521934e-01,7.011227945107824100e-01,7.124754945642487458e-01,7.215113170557833078e-01,7.305471395473178697e-01,7.395829620388523207e-01,7.485474959900195735e-01,7.548030654072358514e-01,7.610586348244520183e-01,7.673142042416681852e-01,7.735697736588843521e-01,7.760826947068258930e-01,7.726073783639280101e-01,7.691320620210301273e-01,7.656567456781322445e-01,7.621814293352342506e-01,7.530208518980572308e-01,7.418998396007840945e-01,7.307788273035109583e-01,7.196578150062376000e-01,7.048297986098732704e-01,6.575654963464622194e-01,6.103011940830512794e-01,5.630368918196402284e-01,5.157725895562285112e-01,5.378007485296740775e-01,6.406701122794508096e-01,7.435394760292293181e-01,8.464088397790061613e-01,9.492782035287830045e-01,9.734450187132418497e-01,9.803956513990376154e-01,9.873462840848333810e-01,9.942969167706291467e-01,9.911423988593834888e-01,9.417929067902329754e-01,8.924434147210833501e-01,8.430939226519336138e-01,7.937444305827838775e-01,7.616111210122974429e-01,7.442345392978078067e-01,7.268579575833185036e-01,7.094813758688290894e-01,6.921047941543394533e-01,5.880235252183203531e-01,4.740331491712704293e-01,3.600427731242204499e-01,2.460523970771704705e-01,1.887364106219932003e-01,2.957761539832474695e-01,4.028158973445017388e-01,5.098556407057577289e-01,6.168953840670119426e-01,6.567813224024238172e-01,6.546961325966851319e-01,6.526109427909464467e-01,6.505257529852076503e-01,6.484405631794689651e-01,6.463553733737301688e-01,6.442701835679914835e-01,6.421849937622526872e-01,6.400998039565140019e-01,6.361611121012297199e-01,6.285154161468544665e-01,6.208697201924789910e-01,6.132240242381037376e-01,6.055783282837284842e-01,6.013010158617002610e-01,5.985207627873819769e-01,5.957405097130636928e-01,5.929602566387452978e-01,5.901800035644270137e-01,5.873997504901087297e-01,5.846194974157904456e-01,5.818392443414720505e-01,5.790589912671537665e-01,5.791302798075209646e-01,5.833006594189984462e-01,5.874710390304758167e-01,5.916414186419532983e-01,5.958117982534307799e-01,5.989128497594011780e-01,6.016931028337194620e-01,6.044733559080377461e-01,6.072536089823560301e-01,6.108358581358046546e-01,6.198716806273391056e-01,6.289075031188735565e-01,6.379433256104082295e-01,6.469791481019426804e-01,6.553377294599892489e-01,6.629834254143647243e-01,6.706291213687399777e-01,6.782748173231153421e-01,6.859205132774908176e-01,6.912136873997505315e-01,6.960791302798076119e-01,7.009445731598646923e-01,7.058100160399216616e-01,7.093922651933701751e-01,7.080021386562110886e-01,7.066120121190518910e-01,7.052218855818926935e-01,7.038317590447336070e-01,7.024416325075744094e-01,7.010515059704153229e-01,6.996613794332561254e-01,6.982712528960969278e-01,6.968811263589378413e-01,6.961325966850828717e-01,6.954375334165032729e-01,6.947424701479237852e-01,6.940474068793441864e-01,6.931563001247549316e-01,6.917661735875958451e-01,6.903760470504366475e-01,6.889859205132775610e-01,6.875957939761183635e-01,6.875423275708429927e-01,6.882373908394225914e-01,6.889324541080021902e-01,6.896275173765816779e-01,6.903225806451612767e-01
2.465753424657534110e-01,2.480511617346552455e-01,2.495269810035571079e-01,2.510028002724589702e-01,2.524786195413608048e-01,2.544842200862786896e-01,2.574358586240823588e-01,2.603874971618860279e-01,2.633391356996896970e-01,2.662907742374933662e-01,2.692424127752970908e-01,2.721940513131007600e-01,2.751456898509044291e-01,2.780973283887080982e-01,2.810489669265117674e-01,2.840006054643154365e-01,2.869522440021191612e-01,2.899038825399228303e-01,2.928555210777264994e-01,2.958071596155301686e-01,2.987587981533338377e-01,3.017104366911375068e-01,3.046620752289412315e-01,3.076137137667449006e-01,3.070460909710133746e-01,3.055702717021115400e-01,3.040944524332097054e-01,3.026186331643078709e-01,3.015969121319911905e-01,3.030727314008930251e-01,3.045485506697949152e-01,3.060243699386967497e-01,3.075001892075985843e-01,3.089760084765004189e-01,3.104518277454022535e-01,3.119276470143040880e-01,3.134034662832059226e-01,3.148792855521077572e-01,3.124952698100355586e-01,3.095436312722318339e-01,3.065919927344282203e-01,3.036403541966245512e-01,3.010292893362597200e-01,2.995534700673578854e-01,2.980776507984560508e-01,2.966018315295542163e-01,2.951260122606523817e-01,2.797245137364715584e-01,2.546355861651403707e-01,2.295466585938091830e-01,2.044577310224778288e-01,1.793688034511464746e-01,1.738817830924089813e-01,1.694543252857034776e-01,1.650268674789979462e-01,1.605994096722924147e-01,1.593506395216831850e-01,1.652539165972905233e-01,1.711571936728978893e-01,1.770604707485052831e-01,1.829637478241126214e-01,2.085446151517443836e-01,2.439642776053886908e-01,2.793839400590329980e-01,3.148036025126769721e-01,3.495421176114432704e-01,3.583970332248543333e-01,3.672519488382653963e-01,3.761068644516764037e-01,3.849617800650874111e-01,3.887080905169151834e-01,3.842806327102096242e-01,3.798531749035041205e-01,3.754257170967986168e-01,3.709982592900930576e-01,3.632785892681449358e-01,3.544236736547339284e-01,3.455687580413229210e-01,3.367138424279118025e-01,3.215015515023079140e-01,2.506622265950199102e-01,1.798229016877319342e-01,1.089835767804439581e-01,3.814425187315478860e-02,5.312949368046643306e-02,1.682433966548094184e-01,2.833572996291542911e-01,3.984712026034972765e-01,5.135851055778402063e-01,6.165897222432450420e-01,7.169454325285697927e-01,8.173011428138960976e-01,9.176568530992206263e-01,9.835767804435028294e-01,8.920759857715876429e-01,8.005751910996740106e-01,7.090743964277603784e-01,6.175736017558466351e-01,5.395822296223420356e-01,4.731703625217584253e-01,4.067584954211759252e-01,3.403466283205934806e-01,2.739347612200099258e-01,2.591765685309921352e-01,2.503216529175811278e-01,2.414667373041701481e-01,2.326118216907591407e-01,2.260273972602739601e-01,2.260273972602739601e-01,2.260273972602739601e-01,2.260273972602739601e-01,2.260273972602739601e-01,2.223946113675925040e-01,2.164913342919851658e-01,2.105880572163778275e-01,2.046847801407704059e-01,1.987815030651630677e-01,1.900022704911829285e-01,1.811473548777717824e-01,1.722924392643607749e-01,1.634375236509497953e-01,1.540906682812381856e-01,1.437599333989253436e-01,1.334291985166123351e-01,1.230984636342995209e-01,1.127677287519866789e-01,1.003935518050403375e-01,8.711117838492384025e-02,7.382880496480734300e-02,6.054643154469084576e-02,4.756679028229777312e-02,4.018769393778848925e-02,3.280859759327932335e-02,2.542950124877015744e-02,1.805040490426087010e-02,1.430409445243321920e-02,1.577991372133505377e-02,1.725573299023688487e-02,1.873155225913871944e-02,2.020737152804057482e-02,2.622417316279423982e-02,3.360326950730340573e-02,4.098236585181268959e-02,4.836146219632185550e-02,5.706501173087116796e-02,7.477484295769315503e-02,9.248467418451515598e-02,1.101945054113374484e-01,1.279043366381594216e-01,1.484901233633542372e-01,1.721032316657839512e-01,1.957163399682129157e-01,2.193294482706426018e-01,2.429425565730723435e-01,2.553167335200181021e-01,2.656474684023311106e-01,2.759782032846441191e-01,2.863089381669567945e-01,2.951260122606524372e-01,2.980776507984560508e-01,3.010292893362597755e-01,3.039809278740635001e-01,3.069325664118671138e-01,3.057216377809732766e-01,3.012941799742678284e-01,2.968667221675622692e-01,2.924392643608566544e-01,2.880118065541512618e-01,2.822220540376901288e-01,2.763187769620826795e-01,2.704154998864754522e-01,2.645122228108680029e-01,2.615227427533490245e-01,2.659502005600544727e-01,2.703776583667600875e-01,2.748051161734654801e-01,2.792325739801710949e-01,2.836600317868766541e-01,2.880874895935820468e-01,2.925149474002876060e-01,2.969424052069930542e-01,3.013698630136986134e-01
2.805755395683453002e-01,2.759251162605826924e-01,2.712746929528200290e-01,2.666242696450574212e-01,2.619738463372948134e-01,2.567669621209109909e-01,2.505663977105608287e-01,2.443658333002106664e-01,2.381652688898605041e-01,2.319647044795103141e-01,2.335545927898565188e-01,2.382050160976191544e-01,2.428554394053817622e-01,2.475058627131443978e-01,2.521562860209070056e-01,2.568067093286696689e-01,2.614571326364322768e-01,2.661075559441949401e-01,2.707579792519575479e-01,2.727055924321316605e-01,2.711554513295441060e-01,2.696053102269565516e-01,2.680551691243690526e-01,2.665050280217814982e-01,2.698835406812671311e-01,2.745339639890297945e-01,2.791843872967924023e-01,2.838348106045550101e-01,2.872928176795579991e-01,2.841925354743829457e-01,2.810922532692078368e-01,2.779919710640327835e-01,2.748916888588576746e-01,2.789459040502405007e-01,2.897968917683532708e-01,3.006478794864660964e-01,3.114988672045788665e-01,3.223498549226916920e-01,3.169839818752732685e-01,3.092332763623354963e-01,3.014825708493978351e-01,2.937318653364601184e-01,2.870543344330060420e-01,2.839540522278309886e-01,2.808537700226559353e-01,2.777534878174808264e-01,2.746532056123057730e-01,2.569259509519454809e-01,2.290234111053698340e-01,2.011208712587941594e-01,1.732183314122182627e-01,1.453157915656423660e-01,1.380023053380499964e-01,1.318017409276998342e-01,1.256011765173496442e-01,1.194006121069994542e-01,1.189236456138956510e-01,1.313247744345959478e-01,1.437259032552963278e-01,1.561270320759967356e-01,1.685281608966970324e-01,1.984975555467227426e-01,2.372510831114114649e-01,2.760046106761002149e-01,3.147581382407886319e-01,3.527564688580626662e-01,3.620573154735879928e-01,3.713581620891132640e-01,3.806590087046384796e-01,3.899598553201636952e-01,3.944910370046503800e-01,3.913907547994753267e-01,3.882904725943002733e-01,3.851901903891251644e-01,3.820899081839501110e-01,3.720736118287689687e-01,3.596724830080686441e-01,3.472713541873683751e-01,3.348702253666678841e-01,3.165865097976862663e-01,2.468301601812471491e-01,1.770738105648079763e-01,1.073174609483688036e-01,3.756111133192852058e-02,6.295957708970970068e-02,1.993719941174129373e-01,3.357844111451184221e-01,4.721968281728216588e-01,6.086092452005248399e-01,6.979609682419808392e-01,7.770181644739451166e-01,8.560753607059108372e-01,9.351325569378752256e-01,9.819150204698121609e-01,8.811558488016206780e-01,7.803966771334307495e-01,6.796375054652408210e-01,5.788783337970508924e-01,4.989864462021547098e-01,4.369808020986521990e-01,3.749751579951506875e-01,3.129695138916492869e-01,2.509638697881467762e-01,2.404308597321037910e-01,2.357804364243411832e-01,2.311300131165785754e-01,2.264795898088159676e-01,2.210342223458801603e-01,2.132835168329424713e-01,2.055328113200047824e-01,1.977821058070669824e-01,1.900314002941292935e-01,1.841885607536070391e-01,1.795381374458444312e-01,1.748877141380818234e-01,1.702372908303191323e-01,1.655868675225565245e-01,1.594260503199650403e-01,1.532254859096147948e-01,1.470249214992646325e-01,1.408243570889144980e-01,1.330736515759768090e-01,1.222226638578640528e-01,1.113716761397511162e-01,1.005206884216383600e-01,8.966970070352558997e-02,7.667236376644526175e-02,6.272109384315742442e-02,4.876982391986959403e-02,3.481855399658176364e-02,2.142374498191503690e-02,1.832346277673991414e-02,1.522318057156483995e-02,1.212289836638976576e-02,9.022616161214639524e-03,9.102110576732018107e-03,1.375253388449462939e-02,1.840295719225724241e-02,2.305338050001985023e-02,2.770380380778253784e-02,3.473905958106445618e-02,4.248976509400213819e-02,5.024047060693995204e-02,5.799117611987764098e-02,6.713303390436828333e-02,8.573472713541871459e-02,1.043364203664691736e-01,1.229381135975199102e-01,1.415398068285703692e-01,1.586311061647919241e-01,1.741325171906675517e-01,1.896339282165426521e-01,2.051353392424182798e-01,2.206367502682938797e-01,2.335148455820977853e-01,2.459159744027982764e-01,2.583171032234987674e-01,2.707182320441988699e-01,2.799395842442067850e-01,2.768393020390317871e-01,2.737390198338566782e-01,2.706387376286815138e-01,2.675384554235065160e-01,2.661870503597122406e-01,2.661870503597122406e-01,2.661870503597122406e-01,2.661870503597122406e-01,2.661870503597122406e-01,2.633252514010890888e-01,2.602249691959139244e-01,2.571246869907389265e-01,2.540244047855637621e-01,2.526729997217695978e-01,2.557732819269446511e-01,2.588735641321197600e-01,2.619738463372947579e-01,2.650741285424699223e-01,2.671807305536786359e-01,2.687308716562661348e-01,2.702810127588537448e-01,2.718311538614412437e-01,2.733812949640287981e-01
3.599999999999999867e-01,3.575374901341751843e-01,3.550749802683504375e-01,3.526124704025256351e-01,3.501499605367008883e-01,3.494554064719810893e-01,3.519179163378058361e-01,3.543804262036306385e-01,3.568429360694553854e-01,3.593054459352801877e-01,3.608839779005524884e-01,3.621152328334648618e-01,3.633464877663772907e-01,3.645777426992896642e-01,3.659037095501184167e-01,3.683662194159431635e-01,3.708287292817679659e-01,3.732912391475927683e-01,3.757537490134175706e-01,3.776795580110497430e-01,3.789108129439621164e-01,3.801420678768744899e-01,3.813733228097869188e-01,3.826045777426992922e-01,3.838358326756116656e-01,3.850670876085240391e-01,3.862983425414364680e-01,3.875295974743488414e-01,3.889502762430939176e-01,3.914127861089187199e-01,3.938752959747435223e-01,3.963378058405682691e-01,3.988003157063930715e-01,4.012628255722178738e-01,4.037253354380426207e-01,4.061878453038674230e-01,4.086503551696921699e-01,4.111128650355169722e-01,4.082083662194159190e-01,4.045146014206787433e-01,4.008208366219415675e-01,3.971270718232044472e-01,3.922967640094711661e-01,3.836779794790843856e-01,3.750591949486977161e-01,3.664404104183109911e-01,3.578216258879242107e-01,3.462983425414363770e-01,3.327545382794001028e-01,3.192107340173638841e-01,3.056669297553274989e-01,2.921231254932911692e-01,2.727387529597474214e-01,2.530386740331492246e-01,2.333385951065508890e-01,2.136385161799525534e-01,2.121231254932912924e-01,2.515232833464876583e-01,2.909234411996843295e-01,3.303235990528810007e-01,3.697237569060773943e-01,3.902446724546171364e-01,4.013259668508287192e-01,4.124072612470403021e-01,4.234885556432517739e-01,4.346014206787687240e-01,4.469139700078926802e-01,4.592265193370166365e-01,4.715390686661404818e-01,4.838516179952643825e-01,4.895343330702446871e-01,4.846093133385950824e-01,4.796842936069455332e-01,4.747592738752959840e-01,4.698342541436464348e-01,4.465982636148380092e-01,4.170481452249407694e-01,3.874980268350434742e-01,3.579479084451456794e-01,3.241041831097075110e-01,2.526913970007891308e-01,1.812786108918707229e-01,1.098658247829523149e-01,3.845303867403271347e-02,9.944751381215510833e-02,3.149171270718227333e-01,5.303867403314939111e-01,7.458563535911615361e-01,9.613259668508291611e-01,9.656511444356749019e-01,9.237884767166537614e-01,8.819258089976319548e-01,8.400631412786108143e-01,7.931176006314129001e-01,7.229360694554057831e-01,6.527545382793997764e-01,5.825730071033936586e-01,5.123914759273876518e-01,4.627624309392266988e-01,4.307498026835041016e-01,3.987371744277820595e-01,3.667245461720600175e-01,3.347119179163374758e-01,3.314285714285714057e-01,3.314285714285714057e-01,3.314285714285714057e-01,3.314285714285714057e-01,3.304814522494080031e-01,3.267876874506708273e-01,3.230939226519337071e-01,3.194001578531964758e-01,3.157063930544593000e-01,3.112549329123914799e-01,3.063299131807419307e-01,3.014048934490923815e-01,2.964798737174427212e-01,2.915548539857931720e-01,2.794317284925019740e-01,2.671191791633779067e-01,2.548066298342540614e-01,2.424940805051302162e-01,2.334648776637726908e-01,2.310023677979479162e-01,2.285398579321231138e-01,2.260773480662983392e-01,2.236148382004735646e-01,2.194475138121546598e-01,2.145224940805051106e-01,2.095974743488555614e-01,2.046724546172060122e-01,1.997474348855564630e-01,1.948224151539068305e-01,1.898973954222572813e-01,1.849723756906077321e-01,1.800473559589580996e-01,1.796685082872928607e-01,1.858247829518547833e-01,1.919810576164167060e-01,1.981373322809786564e-01,2.042936069455406900e-01,2.095027624309392378e-01,2.144277821625887870e-01,2.193528018942384195e-01,2.242778216258879409e-01,2.310970797158642953e-01,2.507971586424624921e-01,2.704972375690606889e-01,2.901973164956591633e-01,3.098973954222573601e-01,3.253985793212312294e-01,3.364798737174429233e-01,3.475611681136542286e-01,3.586424625098658669e-01,3.697237569060775053e-01,3.776795580110496875e-01,3.850670876085241501e-01,3.924546172059985572e-01,3.998421468034727422e-01,4.054617205998420904e-01,4.042304656669297724e-01,4.029992107340173435e-01,4.017679558011049701e-01,4.005367008681925967e-01,4.000000000000000222e-01,4.000000000000000222e-01,4.000000000000000222e-01,4.000000000000000222e-01,4.000000000000000222e-01,3.965903709550118172e-01,3.928966061562745860e-01,3.892028413575375212e-01,3.855090765588002899e-01,3.832044198895027676e-01,3.844356748224151410e-01,3.856669297553275699e-01,3.868981846882399434e-01,3.881294396211523168e-01,3.885714285714285676e-01,3.885714285714285676e-01,3.885714285714285676e-01,3.885714285714285676e-01,3.885714285714285676e-01
2.611111111111111271e-01,2.599140577041129663e-01,2.587170042971148054e-01,2.575199508901166445e-01,2.563228974831184837e-01,2.555555555555555358e-01,2.555555555555555358e-01,2.555555555555555358e-01,2.555555555555555358e-01,2.555555555555555358e-01,2.529772866789441466e-01,2.493861264579496639e-01,2.457949662369551813e-01,2.422038060159607264e-01,2.389809699201964621e-01,2.401780233271945952e-01,2.413750767341927561e-01,2.425721301411909170e-01,2.437691835481890779e-01,2.444444444444444364e-01,2.444444444444444364e-01,2.444444444444444364e-01,2.444444444444444364e-01,2.444444444444444364e-01,2.472989564149785102e-01,2.508901166359729928e-01,2.544812768569674755e-01,2.580724370779619581e-01,2.612952731737262502e-01,2.624923265807243555e-01,2.636893799877225164e-01,2.648864333947206773e-01,2.660834868017188382e-01,2.666666666666666630e-01,2.666666666666666630e-01,2.666666666666666630e-01,2.666666666666666630e-01,2.666666666666666630e-01,2.687538367096378167e-01,2.711479435236341384e-01,2.735420503376304602e-01,2.759361571516267819e-01,2.775015346838551333e-01,2.763044812768569725e-01,2.751074278698588116e-01,2.739103744628606507e-01,2.727133210558624898e-01,2.616329036218537629e-01,2.436771025168814886e-01,2.257213014119091865e-01,2.077655003069367456e-01,1.898096992019642770e-01,1.775322283609576113e-01,1.655616942909760858e-01,1.535911602209944493e-01,1.416206261510128406e-01,1.322283609576427321e-01,1.286372007366482495e-01,1.250460405156537669e-01,1.214548802946592843e-01,1.178637200736648294e-01,1.437998772252914725e-01,1.844996930632290533e-01,2.251995089011666062e-01,2.658993247391038262e-01,3.057397176181706477e-01,3.129220380601596130e-01,3.201043585021486337e-01,3.272866789441375435e-01,3.344689993861264532e-01,3.379680785758134021e-01,3.355739717618170803e-01,3.331798649478207586e-01,3.307857581338244368e-01,3.283916513198281151e-01,3.277777777777777790e-01,3.277777777777777790e-01,3.277777777777777790e-01,3.277777777777777790e-01,3.222529158993244214e-01,2.683855125844075151e-01,2.145181092694906089e-01,1.606507059545737026e-01,1.067833026396559082e-01,7.004297114794348633e-02,5.328422344996934512e-02,3.652547575199491942e-02,1.976672805402077127e-02,3.007980356046616177e-03,1.767955801104967861e-01,3.922651933701644111e-01,6.077348066298355889e-01,8.232044198895032139e-01,9.819521178637202752e-01,8.813996316758737626e-01,7.808471454880288043e-01,6.802946593001839570e-01,5.797421731123391098e-01,4.998158379373852656e-01,4.375690607734802340e-01,3.753222836095763126e-01,3.130755064456722803e-01,2.508287292817673042e-01,2.358502148557396483e-01,2.262737875997544168e-01,2.166973603437692131e-01,2.071209330877839816e-01,1.987722529158993112e-01,1.939840392879066955e-01,1.891958256599140797e-01,1.844076120319213807e-01,1.796193984039287650e-01,1.792510742786986022e-01,1.816451810926948962e-01,1.840392879066912180e-01,1.864333947206875397e-01,1.888275015346838615e-01,1.830570902394106914e-01,1.770718232044198315e-01,1.710865561694290549e-01,1.651012891344383060e-01,1.579189686924493685e-01,1.483425414364641370e-01,1.387661141804787668e-01,1.291896869244935353e-01,1.196132596685083038e-01,1.116942909760588465e-01,1.045119705340699368e-01,9.732965009208101315e-02,9.014732965009208954e-02,8.308778391651322481e-02,7.829957028852052581e-02,7.351135666052791007e-02,6.872314303253529433e-02,6.393492940454260920e-02,6.012891344383055475e-02,5.773480662983424688e-02,5.534069981583793901e-02,5.294659300184163808e-02,5.055248618784528858e-02,5.092081031307551381e-02,5.211786372007366774e-02,5.331491712707183556e-02,5.451197053406998949e-02,5.785758133824437516e-02,7.581338244321668418e-02,9.376918354818898627e-02,1.117249846531615798e-01,1.296807857581339096e-01,1.458870472682627373e-01,1.602516881522408065e-01,1.746163290362184040e-01,1.889809699201964732e-01,2.033456108041745702e-01,2.197360343769182711e-01,2.364947820748926899e-01,2.532535297728671364e-01,2.700122774708410001e-01,2.816144874155923072e-01,2.732351135666053477e-01,2.648557397176181105e-01,2.564763658686309289e-01,2.480969920196439693e-01,2.457949662369552091e-01,2.481890730509514476e-01,2.505831798649478248e-01,2.529772866789441466e-01,2.553713934929404128e-01,2.500306936771024557e-01,2.440454266421116236e-01,2.380601596071209580e-01,2.320748925721300981e-01,2.291282995702886016e-01,2.339165131982811618e-01,2.387047268262738331e-01,2.434929404542663933e-01,2.482811540822590646e-01,2.476979742173111843e-01,2.441068139963167849e-01,2.405156537753222468e-01,2.369244935543278474e-01,2.333333333333333370e-01
2.371794871794871695e-01,2.399419181187136818e-01,2.427043490579402218e-01,2.454667799971667341e-01,2.482292109363932464e-01,2.475208953109505616e-01,2.406148179628842532e-01,2.337087406148179725e-01,2.268026632667516640e-01,2.198965859186853555e-01,2.219152854511970696e-01,2.274401473296500942e-01,2.329650092081031187e-01,2.384898710865561711e-01,2.432710015582943697e-01,2.391273551494546012e-01,2.349837087406148051e-01,2.308400623317750366e-01,2.266964159229352682e-01,2.261651792038532338e-01,2.303088256126930300e-01,2.344524720215327984e-01,2.385961184303725668e-01,2.427397648392123353e-01,2.523728573452330148e-01,2.634225811021391195e-01,2.744723048590452241e-01,2.855220286159512733e-01,2.938093214336308101e-01,2.869032440855645572e-01,2.799971667374982487e-01,2.730910893894319402e-01,2.661850120413656318e-01,2.670704065731689947e-01,2.753576993908485870e-01,2.836449922085281239e-01,2.919322850262076607e-01,3.002195778438871976e-01,2.952613684657883208e-01,2.883552911177220124e-01,2.814492137696557594e-01,2.745431364215894510e-01,2.695495112622184330e-01,2.709307267318317169e-01,2.723119422014449453e-01,2.736931576710582292e-01,2.750743731406715131e-01,2.585352032865843586e-01,2.295296784247060351e-01,2.005241535628277116e-01,1.715186287009491106e-01,1.425131038390705374e-01,1.384048732115030489e-01,1.356424422722765366e-01,1.328800113330499966e-01,1.301175803938234565e-01,1.265051707040657225e-01,1.209803088256126979e-01,1.154554469471596456e-01,1.099305850687065794e-01,1.044057231902535687e-01,1.357132738348206524e-01,1.854370307408982066e-01,2.351607876469757608e-01,2.848845445530528986e-01,3.333333333333333148e-01,3.333333333333333148e-01,3.333333333333333148e-01,3.333333333333333148e-01,3.333333333333333148e-01,3.343958067714973836e-01,3.371582377107238959e-01,3.399206686499504082e-01,3.426830995891769205e-01,3.454455305284034328e-01,3.399915002124946350e-01,3.317042073948150982e-01,3.234169145771356169e-01,3.151296217594559135e-01,3.013174670633230745e-01,2.391627709307266314e-01,1.770080747981301883e-01,1.148533786655337452e-01,5.269868253293630289e-02,5.174245643858917110e-02,1.221844453888651233e-01,1.926264343391422273e-01,2.630684232894182073e-01,3.335104122396941317e-01,4.617509562260940781e-01,6.026349341266459270e-01,7.435189120272001073e-01,8.844028899277520672e-01,9.819025357699392442e-01,8.810738064881700193e-01,7.802450772064025708e-01,6.794163479246350112e-01,5.785876186428674517e-01,5.000708315625446154e-01,4.406785663691736854e-01,3.812863011758037546e-01,3.218940359824338238e-01,2.625017707890629493e-01,2.514520470321574552e-01,2.459271851537044584e-01,2.404023232752514616e-01,2.348774613967984648e-01,2.279359682674599319e-01,2.168862445105538828e-01,2.058365207536478614e-01,1.947867969967416180e-01,1.837370732398355966e-01,1.777872219861170167e-01,1.750247910468905044e-01,1.722623601076639921e-01,1.694999291684374243e-01,1.667374982292109120e-01,1.572460688482787972e-01,1.475775605609858654e-01,1.379090522736931002e-01,1.282405439864003072e-01,1.194928460121830321e-01,1.125867686641167653e-01,1.056806913160503875e-01,9.877461396798412063e-02,9.186853661991783992e-02,7.922510270576552105e-02,6.403173254001973125e-02,4.883836237427393451e-02,3.364499220852813777e-02,1.944326391840201992e-02,2.358691032724185080e-02,2.773055673608161228e-02,3.187420314492137030e-02,3.601784955376120811e-02,3.506162345941345876e-02,2.677433064173393232e-02,1.848703782405440935e-02,1.019974500637488291e-02,1.912452188695221156e-03,8.499787505312401265e-03,1.954951126221843305e-02,3.059923501912464872e-02,4.164895877603067703e-02,5.269868253293671229e-02,6.374840628984274060e-02,7.479813004674877586e-02,8.584785380365499152e-02,9.689757756056102678e-02,1.140033999150021071e-01,1.374840628984277946e-01,1.609647258818527327e-01,1.844453888652784479e-01,2.079260518487041631e-01,2.173820654483637482e-01,2.242881427964301400e-01,2.311942201444965317e-01,2.381002974925626736e-01,2.441563960900977881e-01,2.469188270293242449e-01,2.496812579685507849e-01,2.524436889077773527e-01,2.552061198470038095e-01,2.517353732823345291e-01,2.434480804646551311e-01,2.351607876469754832e-01,2.268734948292958353e-01,2.185862020116164373e-01,2.230485904519053930e-01,2.285734523303585009e-01,2.340983142088114144e-01,2.396231760872645222e-01,2.443688907777306074e-01,2.471313217169570642e-01,2.498937526561836042e-01,2.526561835954100887e-01,2.554186145346366010e-01,2.546394673466496061e-01,2.518770364074231494e-01,2.491146054681965816e-01,2.463521745289701248e-01,2.435897435897435848e-01
2.916666666666666852e-01,2.976519337016574895e-01,3.036372007366482384e-01,3.096224677716390428e-01,3.156077348066297916e-01,3.205187231430325356e-01,3.235113566605278823e-01,3.265039901780232845e-01,3.294966236955186867e-01,3.324892572130140889e-01,3.311847759361571386e-01,3.281921424186617364e-01,3.251995089011663342e-01,3.222068753836709321e-01,3.200199508901165890e-01,3.275015346838551222e-01,3.349831184775935999e-01,3.424647022713321332e-01,3.499462860650706109e-01,3.528621853898097349e-01,3.498695518723143327e-01,3.468769183548189305e-01,3.438842848373235284e-01,3.408916513198281262e-01,3.462246777163904277e-01,3.537062615101289054e-01,3.611878453038674386e-01,3.686694290976059163e-01,3.745395948434622202e-01,3.715469613259668735e-01,3.685543278084714713e-01,3.655616942909760692e-01,3.625690607734806670e-01,3.626457949662369451e-01,3.656384284837323473e-01,3.686310620012277495e-01,3.716236955187231517e-01,3.746163290362185538e-01,3.736955187231430497e-01,3.721992019643953209e-01,3.707028852056476476e-01,3.692065684468999742e-01,3.670196439533456312e-01,3.625306936771025001e-01,3.580417434008594246e-01,3.535527931246163491e-01,3.490638428483732181e-01,3.304558011049721911e-01,3.020257826887660646e-01,2.735957642725599381e-01,2.451657458563535619e-01,2.167357274401471856e-01,2.067602823818293356e-01,1.977823818293431846e-01,1.888044812768569503e-01,1.798265807243707437e-01,1.800567833026396891e-01,2.010052179251073656e-01,2.219536525475752087e-01,2.429020871700430795e-01,2.638505217925107837e-01,2.937768569674645835e-01,3.281921424186617919e-01,3.626074278698590003e-01,3.970227133210559312e-01,4.306706568446900252e-01,4.351596071209331007e-01,4.396485573971762317e-01,4.441375076734193073e-01,4.486264579496623828e-01,4.502378759975445011e-01,4.472452424800490989e-01,4.442526089625536967e-01,4.412599754450583500e-01,4.382673419275628923e-01,4.263735420503375617e-01,4.114103744628606618e-01,3.964472068753837064e-01,3.814840392879065845e-01,3.599217311233881555e-01,2.806169429097604695e-01,2.013121546961327835e-01,1.220073664825051252e-01,4.270257826887613462e-02,8.770718232044234786e-02,2.777394106813992347e-01,4.677716390423591886e-01,6.578038674033160893e-01,8.478360957642728790e-01,9.028161448741558459e-01,9.282535297728665702e-01,9.536909146715778496e-01,9.791282995702885739e-01,9.825429711479437556e-01,8.852823818293421576e-01,7.880217925107422250e-01,6.907612031921421814e-01,5.935006138735423598e-01,5.220227133210562087e-01,4.726442602823815453e-01,4.232658072437076591e-01,3.738873542050338283e-01,3.245089011663592204e-01,3.207872928176795368e-01,3.222836095764272657e-01,3.237799263351749390e-01,3.252762430939226679e-01,3.229358502148556576e-01,3.094689993861264310e-01,2.960021485573972044e-01,2.825352977286677558e-01,2.690684468999385293e-01,2.611264579496623828e-01,2.566375076734193073e-01,2.521485573971762317e-01,2.476596071209330452e-01,2.431706568446899697e-01,2.313919582565991673e-01,2.194214241866174198e-01,2.074508901166358943e-01,1.954803560466543688e-01,1.850061387354205167e-01,1.775245549416820667e-01,1.700429711479434780e-01,1.625613873542050281e-01,1.550798035604665781e-01,1.444904849600980867e-01,1.325199508901165613e-01,1.205494168201350219e-01,1.085788827501534826e-01,9.737569060773479390e-02,1.003683241252302238e-01,1.033609576427256121e-01,1.063535911602209866e-01,1.093462246777164165e-01,1.080417434008593691e-01,1.005601596071209053e-01,9.307857581338245534e-02,8.559699201964399151e-02,7.811540822590541666e-02,9.020104358502153974e-02,1.081568446899938418e-01,1.261126457949664492e-01,1.440684468999387513e-01,1.616405770411295517e-01,1.766037446286064794e-01,1.915669122160834070e-01,2.065300798035605845e-01,2.214932473910374844e-01,2.408302639656230704e-01,2.647713321055865099e-01,2.887124002455492278e-01,3.126534683855126673e-01,3.365945365254761623e-01,3.542050337630447410e-01,3.706645181092696473e-01,3.871240024554944981e-01,4.035834868017188493e-01,4.154389195825659575e-01,4.094536525475752642e-01,4.034683855125844043e-01,3.974831184775935444e-01,3.914978514426028511e-01,3.872007366482504431e-01,3.842081031307550965e-01,3.812154696132596943e-01,3.782228360957642366e-01,3.752302025782688899e-01,3.694751381215469199e-01,3.634898710865560600e-01,3.575046040515653667e-01,3.515193370165745068e-01,3.489103744628607728e-01,3.548956414978514107e-01,3.608809085328423261e-01,3.668661755678329639e-01,3.728514426028238238e-01,3.730816451810926582e-01,3.700890116635973115e-01,3.670963781461018538e-01,3.641037446286065626e-01,3.611111111111111049e-01
4.210526315789473450e-01,4.295580110497237425e-01,4.380633905205001399e-01,4.465687699912765374e-01,4.550741494620529348e-01,4.589997092177958704e-01,4.547470194824076439e-01,4.504943297470194730e-01,4.462416400116312465e-01,4.419889502762430755e-01,4.438426868275661130e-01,4.480953765629543395e-01,4.523480662983425105e-01,4.566007560337307369e-01,4.604172724629252422e-01,4.589997092177958704e-01,4.575821459726664986e-01,4.561645827275370713e-01,4.547470194824076994e-01,4.564190171561500753e-01,4.620892701366676736e-01,4.677595231171852164e-01,4.734297760977028147e-01,4.791000290782204130e-01,4.768828147717359411e-01,4.726301250363477702e-01,4.683774353009595437e-01,4.641247455655713727e-01,4.609624890956673382e-01,4.637976155859261373e-01,4.666327420761849365e-01,4.694678685664437356e-01,4.723029950567024793e-01,4.707763884850246772e-01,4.651061355045070789e-01,4.594358825239895361e-01,4.537656295434719378e-01,4.480953765629543395e-01,4.510758941552777124e-01,4.553285838906659388e-01,4.595812736260541098e-01,4.638339633614422808e-01,4.638339633614422808e-01,4.496583309101482295e-01,4.354826984588543448e-01,4.213070660075604046e-01,4.071314335562663533e-01,3.912838034312299262e-01,3.742730444896772424e-01,3.572622855481245030e-01,3.402515266065716526e-01,3.232407676650188022e-01,3.116094794998546247e-01,3.002689735388194836e-01,2.889284675777842315e-01,2.775879616167489794e-01,2.775879616167490904e-01,3.031041000290781717e-01,3.286202384414074196e-01,3.541363768537366674e-01,3.796525152660657487e-01,4.080037801686535737e-01,4.377726083163710480e-01,4.675414364640885223e-01,4.973102646118057746e-01,5.263521372492002692e-01,5.277697004943296966e-01,5.291872637394591239e-01,5.306048269845885512e-01,5.320223902297179785e-01,5.339851701075895019e-01,5.368202965978482455e-01,5.396554230881069891e-01,5.424905495783658438e-01,5.453256760686245874e-01,5.260250072695549228e-01,4.990913056120964697e-01,4.721576039546380166e-01,4.452239022971791194e-01,4.117476010468153480e-01,3.210235533585342749e-01,2.302995056702531740e-01,1.395754579819720731e-01,4.885141029368950116e-02,9.355917417854066331e-02,2.962707182320437616e-01,4.989822622855502043e-01,7.016938063390533165e-01,9.044053503925563176e-01,9.512576330328583740e-01,9.640157022390228869e-01,9.767737714451876219e-01,9.895318406513521348e-01,9.824440244257053312e-01,8.846321605117756226e-01,7.868202965978475794e-01,6.890084326839195361e-01,5.911965687699913818e-01,5.307865658621694349e-01,5.024353009595811104e-01,4.740840360569932299e-01,4.457327711544054050e-01,4.173815062518171359e-01,4.042963070660074987e-01,3.929558011049723576e-01,3.816152951439372165e-01,3.702747891829020754e-01,3.614786275079965305e-01,3.600610642628671032e-01,3.586435010177377314e-01,3.572259377726083041e-01,3.558083745274789322e-01,3.465396917708635782e-01,3.323640593195696935e-01,3.181884268682757533e-01,3.040127944169815910e-01,2.898371619656876508e-01,2.894736842105263275e-01,2.894736842105263275e-01,2.894736842105263275e-01,2.894736842105263275e-01,2.871110788019773374e-01,2.800232625763303673e-01,2.729354463506832862e-01,2.658476301250363716e-01,2.587598138993894015e-01,2.438208781622562826e-01,2.253925559755741714e-01,2.069642337888920602e-01,1.885359116022099768e-01,1.712707182320441779e-01,1.755234079674324321e-01,1.797760977028206031e-01,1.840287874382087741e-01,1.882814771735970283e-01,1.913710380924687482e-01,1.927886013375981478e-01,1.942061645827275473e-01,1.956237278278569192e-01,1.970412910729863465e-01,2.060918871765048399e-01,2.174323931375399810e-01,2.287728990985752886e-01,2.401134050596104297e-01,2.516356498982262879e-01,2.643937191043908008e-01,2.771517883105553137e-01,2.899098575167201042e-01,3.026679267228846171e-01,3.202602500726955403e-01,3.429412619947662111e-01,3.656222739168361047e-01,3.883032858389067199e-01,4.109842977609773906e-01,4.180721139866240277e-01,4.223248037220122542e-01,4.265774934574004806e-01,4.308301831927885961e-01,4.353736551323059700e-01,4.410439081128234573e-01,4.467141610933411111e-01,4.523844140738587649e-01,4.580546670543762522e-01,4.541291072986332056e-01,4.427886013375982865e-01,4.314480953765629234e-01,4.201075894155276158e-01,4.087670834544926968e-01,4.105117766792672485e-01,4.133469031695260476e-01,4.161820296597847912e-01,4.190171561500436459e-01,4.190535039255595673e-01,4.119656876999127637e-01,4.048778714742656826e-01,3.977900552486188235e-01,3.907022390229717423e-01,3.936100610642629949e-01,4.021154405350392258e-01,4.106208200058156788e-01,4.191261994765919097e-01,4.276315789473684181e-01
