1.813186813186813129e-01,1.887559953858296280e-01,1.961933094529779709e-01,2.036306235201262860e-01,2.083358630319956384e-01,2.068484002185659587e-01,2.053609374051363068e-01,2.038734745917066271e-01,2.032967032967032961e-01,2.032967032967032961e-01,2.032967032967032961e-01,2.032967032967032961e-01,1.991985914637848520e-01,1.947362030234958408e-01,1.902738145832068573e-01,1.881488677068787474e-01,1.940987189605974106e-01,2.000485702143160460e-01,2.059984214680347370e-01,2.103697407564810995e-01,2.133446663833404311e-01,2.163195920101997349e-01,2.192945176370590665e-01,2.210248315220690873e-01,2.225122943354987393e-01,2.239997571489284189e-01,2.259122093376237095e-01,2.303745977779126930e-01,2.348369862182016765e-01,2.392993746584906600e-01,2.424260822050877395e-01,2.439135450185173914e-01,2.454010078319470711e-01,2.468884706453767230e-01,2.450063748406290098e-01,2.420314492137696782e-01,2.390565235869103189e-01,2.348066298342542935e-01,2.110072248193796129e-01,1.872078198045049324e-01,1.634084147896302519e-01,1.445267439742578264e-01,1.341145042802501797e-01,1.237022645862425052e-01,1.132900248922348863e-01,1.118936312306477998e-01,1.148685568575071314e-01,1.178434824843664491e-01,1.208184081112257807e-01,1.631352073341022502e-01,2.062716289235623224e-01,2.494080505130226721e-01,2.844696739724363321e-01,2.993443021067329068e-01,3.142189302410295926e-01,3.290935583753262783e-01,3.342845000303563685e-01,3.327970372169267166e-01,3.313095744034970647e-01,3.298221115900674127e-01,3.243276060955618822e-01,3.183777548418433301e-01,3.124279035881246669e-01,2.934248072369625149e-01,2.235140550057681530e-01,1.536033027745737634e-01,8.369255054337940147e-02,5.172727824661525753e-02,5.618966668690420635e-02,6.065205512719321068e-02,6.511444356748220808e-02,2.723574767773649374e-01,5.252261550604083729e-01,7.780948333434517528e-01,9.825147228462163262e-01,8.397182927569682986e-01,6.969218626677202710e-01,5.541254325784721324e-01,4.463906259486372652e-01,3.854046505980209258e-01,3.244186752474045865e-01,2.634326998967890243e-01,2.363244490316315227e-01,2.214498208973348370e-01,2.065751927630381790e-01,1.921255540040070764e-01,1.876631655637180651e-01,1.832007771234291371e-01,1.787383886831401258e-01,1.732438831886346509e-01,1.658065691214863080e-01,1.583692550543379651e-01,1.509319409871896500e-01,1.454374354926841750e-01,1.409750470523951638e-01,1.365126586121061802e-01,1.320502701718171690e-01,1.176006314127862190e-01,1.027260032784895472e-01,8.785137514419287530e-02,7.455527897516861513e-02,6.563050209459060647e-02,5.670572521401259780e-02,4.778094833343460301e-02,3.715621395179414393e-02,2.525651144435680368e-02,1.335680893691961954e-02,1.457106429482282750e-03,6.526622548721909209e-03,1.396393661587024514e-02,2.140125068301857933e-02,2.883856475016691526e-02,3.627587881731515751e-02,4.371319288446348650e-02,5.115050695161182936e-02,6.660190638091163795e-02,9.040131139578630459e-02,1.142007164106609851e-01,1.380001214255356379e-01,1.582478295185474337e-01,1.775848460931333528e-01,1.969218626677187722e-01,2.156517515633534499e-01,2.290389168842206224e-01,2.424260822050874620e-01,2.558132475259546346e-01,2.631291360573128624e-01,2.616416732438832105e-01,2.601542104304535585e-01,2.586667476170239066e-01,2.529293910509380905e-01,2.454920769837898586e-01,2.380547629166414048e-01,2.307388743852832602e-01,2.292514115718535805e-01,2.277639487584239286e-01,2.262764859449942767e-01,2.252747252747252793e-01,2.252747252747252793e-01,2.252747252747252793e-01,2.252747252747252793e-01,2.252747252747252793e-01,2.252747252747252793e-01,2.252747252747252793e-01,2.252747252747252793e-01,2.266711189363122825e-01,2.281585817497419622e-01,2.296460445631716141e-01,2.325906138060832573e-01,2.400279278732316834e-01,2.474652419403799153e-01,2.549025560075283692e-01,2.590613806083419401e-01,2.605488434217715921e-01,2.620363062352012440e-01,2.635237690486308959e-01,2.662861999878574082e-01,2.692611256147167120e-01,2.722360512415761269e-01,2.742395725821140662e-01,2.712646469552547068e-01,2.682897213283954030e-01,2.653147957015360991e-01,2.553579017667417239e-01,2.375083480055859286e-01,2.196587942444296893e-01,2.018092404832739217e-01,1.839596867221181542e-01,1.661101329609619148e-01,1.482605791998061473e-01,1.310181531176007330e-01,1.206059134235931835e-01,1.101936737295853841e-01,9.978143403557784841e-02,1.130168174367055800e-01,1.635905530933149388e-01,2.141642887499229375e-01,2.647380244065322685e-01,2.843482484366461338e-01,2.902980996903648525e-01,2.962479509440834602e-01,3.021978021978021789e-01
3.973214285714285476e-01,3.961128650355169589e-01,3.949043014996053702e-01,3.936957379636937815e-01,3.910073007103394005e-01,3.849644830307813459e-01,3.789216653512233468e-01,3.728788476716653477e-01,3.697957774269929332e-01,3.685872138910812890e-01,3.673786503551697002e-01,3.661700868192580560e-01,3.660714285714285476e-01,3.660714285714285476e-01,3.660714285714285476e-01,3.660714285714285476e-01,3.660714285714285476e-01,3.660714285714285476e-01,3.660714285714285476e-01,3.667127071823204076e-01,3.679212707182320519e-01,3.691298342541436406e-01,3.703383977900552848e-01,3.755919494869771058e-01,3.816347671665351049e-01,3.876775848460931040e-01,3.930297947908444889e-01,3.942383583267560776e-01,3.954469218626677218e-01,3.966554853985793105e-01,3.984066692975532509e-01,4.008237963693764283e-01,4.032409234411996612e-01,4.056580505130228942e-01,4.044248224151539284e-01,4.020076953433306954e-01,3.995905682715074625e-01,3.964335043409629722e-01,3.819307419100237411e-01,3.674279794790844544e-01,3.529252170481452233e-01,3.384224546172060477e-01,3.239196921862668166e-01,3.094169297553275855e-01,2.949141673243884099e-01,2.844810576164167881e-01,2.760211128650355561e-01,2.675611681136543796e-01,2.591012233622731475e-01,2.991811365430149250e-01,3.402722967640091634e-01,3.813634569850037348e-01,4.120955011838989268e-01,4.169297553275453372e-01,4.217640094711917476e-01,4.265982636148381579e-01,4.321477900552485596e-01,4.381906077348065587e-01,4.442334254143646133e-01,4.502762430939226679e-01,4.465518942383583378e-01,4.417176400947119830e-01,4.368833859510655726e-01,4.234165351223366236e-01,3.762825572217840531e-01,3.291485793212314825e-01,2.820146014206789120e-01,2.231649565903709720e-01,1.530682715074988265e-01,8.297158642462576505e-02,1.287490134175267587e-02,2.209944751381200945e-01,4.917127071823195195e-01,7.624309392265189445e-01,9.866811365430163683e-01,8.779104183109719406e-01,7.691397000789275129e-01,6.603689818468831962e-01,5.738703630623522844e-01,5.170678768745068377e-01,4.602653906866614464e-01,4.034629044988168323e-01,3.777377663772693017e-01,3.632350039463300151e-01,3.487322415153907840e-01,3.347227703235990393e-01,3.323056432517758618e-01,3.298885161799526844e-01,3.274713891081294515e-01,3.229577742699290543e-01,3.144978295185478223e-01,3.060378847671665903e-01,2.975779400157853583e-01,2.946428571428571508e-01,2.946428571428571508e-01,2.946428571428571508e-01,2.946428571428571508e-01,2.830505130228888055e-01,2.709648776637727519e-01,2.588792423046566982e-01,2.477555248618785733e-01,2.392955801104973412e-01,2.308356353591161092e-01,2.223756906077348772e-01,2.132251381215470309e-01,2.035566298342541824e-01,1.938881215469614727e-01,1.842196132596686242e-01,1.872780189423835229e-01,1.921122730860299332e-01,1.969465272296763714e-01,2.017807813733227817e-01,2.066150355169691366e-01,2.114492896606155470e-01,2.162835438042619851e-01,2.234855958958167910e-01,2.331541041831096117e-01,2.428226124704024325e-01,2.524911207576953087e-01,2.717788082083658630e-01,2.935329518547750149e-01,3.152870955011836118e-01,3.356846882399366350e-01,3.441446329913179780e-01,3.526045777426990990e-01,3.610645224940804421e-01,3.670580110497236870e-01,3.694751381215469199e-01,3.718922651933701529e-01,3.743093922651933303e-01,3.706837016574586197e-01,3.646408839779006761e-01,3.585980662983425660e-01,3.527279005524861510e-01,3.551450276243093840e-01,3.575621546961325614e-01,3.599792817679557388e-01,3.596339779005525150e-01,3.535911602209945714e-01,3.475483425414365168e-01,3.415055248618785733e-01,3.423441199684292280e-01,3.471783741120757494e-01,3.520126282557221042e-01,3.568468823993685701e-01,3.560082872928176934e-01,3.547997237569061046e-01,3.535911602209945159e-01,3.541584451460140781e-01,3.602012628255721882e-01,3.662440805051301318e-01,3.722868981846881864e-01,3.750000000000000000e-01,3.750000000000000000e-01,3.750000000000000000e-01,3.750000000000000000e-01,3.729281767955801019e-01,3.705110497237569245e-01,3.680939226519336915e-01,3.662687450670875644e-01,3.674773086029992086e-01,3.686858721389107973e-01,3.698944356748223861e-01,3.694011444356748441e-01,3.669840173638516667e-01,3.645668902920284338e-01,3.621497632202052563e-01,3.644189029202840047e-01,3.680445935280188818e-01,3.716702841357536480e-01,3.747040252565114749e-01,3.710783346487767087e-01,3.674526440410418315e-01,3.638269534333070654e-01,3.611385161799526844e-01,3.599299526440410402e-01,3.587213891081294515e-01,3.575128255722178627e-01,3.437253354380430115e-01,3.243883188634570369e-01,3.050513022888716175e-01,2.857142857142856984e-01
2.147239263803681075e-01,2.213673185777717545e-01,2.280107107751754014e-01,2.346541029725790761e-01,2.387553808087313212e-01,2.370945327593803886e-01,2.354336847100294838e-01,2.337728366606785513e-01,2.382130630783309833e-01,2.465173033250855628e-01,2.548215435718401145e-01,2.631257838185946940e-01,2.638036809815950678e-01,2.638036809815950678e-01,2.638036809815950678e-01,2.630579941022946344e-01,2.597362980035928248e-01,2.564146019048910152e-01,2.530929058061892056e-01,2.524150086431888318e-01,2.540758566925397366e-01,2.557367047418906414e-01,2.573975527912415462e-01,2.548893332881401741e-01,2.515676371894383645e-01,2.482459410907365549e-01,2.461105650272853440e-01,2.510931091753380584e-01,2.560756533233908283e-01,2.610581974714435427e-01,2.615666203436938231e-01,2.565840761956411087e-01,2.516015320475883943e-01,2.466189878995356521e-01,2.441446632545842821e-01,2.424838152052333773e-01,2.408229671558824725e-01,2.376368504897808653e-01,2.110632817001661943e-01,1.844897129105515232e-01,1.579161441209368522e-01,1.374436497983256289e-01,1.274785615022201446e-01,1.175134732061146325e-01,1.075483849100092038e-01,1.020574178897061396e-01,9.873572179100430224e-02,9.541402569230249264e-02,9.209232959360066917e-02,1.392061824221264288e-01,1.873707758533026957e-01,2.355353692844792957e-01,2.713622343490492139e-01,2.763447784971019283e-01,2.813273226451546982e-01,2.863098667932074681e-01,2.932583127139612444e-01,3.015625529607158239e-01,3.098667932074704034e-01,3.181710334542249830e-01,3.070874148391689040e-01,2.938006304443617211e-01,2.805138460495544273e-01,2.557028098837411667e-01,1.859471918110026656e-01,1.161915737382641645e-01,4.643595566552566334e-02,3.430159644781886202e-02,7.748364573094213004e-02,1.206656950140659601e-01,1.638477442971898179e-01,3.548113751143939787e-01,5.790258617767676252e-01,8.032403484391414938e-01,9.847473138324931430e-01,8.601837101311744505e-01,7.356201064298556469e-01,6.110565027285368433e-01,5.035759075348273939e-01,4.188726570179306385e-01,3.341694065010338832e-01,2.494661559841382381e-01,2.160119309900689621e-01,2.010642985459107079e-01,1.861166661017524537e-01,1.717791411042944860e-01,1.717791411042944860e-01,1.717791411042944860e-01,1.717791411042944860e-01,1.677456529844423838e-01,1.561197166389859670e-01,1.444937802935295501e-01,1.328678439480731333e-01,1.244958139850185774e-01,1.178524217876149027e-01,1.112090295902112280e-01,1.045656373928075672e-01,9.792224519540389249e-02,9.127885299800023167e-02,8.463546080059657084e-02,7.667016913534233091e-02,6.504423278988591406e-02,5.341829644442949721e-02,4.179236009897308729e-02,3.206453580991769359e-02,2.376029556316310715e-02,1.545605531640863173e-02,7.151815069654045287e-03,4.677490424702591965e-03,3.016642375351675457e-03,1.355794326000758949e-03,3.050537233501581544e-04,1.965901772701053249e-03,3.626749822051969756e-03,5.287597871402886264e-03,1.671016506795895001e-02,3.830118970952086505e-02,5.989221435108278008e-02,8.148323899264470205e-02,1.096837609734598318e-01,1.395790258617767288e-01,1.694742907500928486e-01,1.976748127309084224e-01,2.109615971257159106e-01,2.242483815205230657e-01,2.375351659153305817e-01,2.460766701691353142e-01,2.477375182184862468e-01,2.493983662678371516e-01,2.510592143171880286e-01,2.432295020845338662e-01,2.316035657390775881e-01,2.199776293936210325e-01,2.088262210622646720e-01,2.204521574077212276e-01,2.320780937531775057e-01,2.437040300986337837e-01,2.471952004880860476e-01,2.339084160932788925e-01,2.206216316984713766e-01,2.073348473036642214e-01,2.098091719486150919e-01,2.214351082940716475e-01,2.330610446395279256e-01,2.446869809849844812e-01,2.438396095312341527e-01,2.421787614818831924e-01,2.405179134325323154e-01,2.392638036809816016e-01,2.392638036809816016e-01,2.392638036809816016e-01,2.392638036809816016e-01,2.438396095312339584e-01,2.521438497779886490e-01,2.604480900247431174e-01,2.687523302714975859e-01,2.685150662644477104e-01,2.668542182150968056e-01,2.651933701657458453e-01,2.646171575771954498e-01,2.695997017252482753e-01,2.745822458733009341e-01,2.795647900213535930e-01,2.783106802698031013e-01,2.700064400230486328e-01,2.617021997762939423e-01,2.533979595295394738e-01,2.528217469409890228e-01,2.544825949903399276e-01,2.561434430396908324e-01,2.549571230044405112e-01,2.217401620174226096e-01,1.885232010304038475e-01,1.553062400433859458e-01,1.317493136291226774e-01,1.234450733823679869e-01,1.151408331356135184e-01,1.068365928888588279e-01,1.135138799444121716e-01,1.268006643392196875e-01,1.400874487340268426e-01,1.533742331288343586e-01
2.721088435374149905e-01,2.850001879204721034e-01,2.978915323035291607e-01,3.107828766865862735e-01,3.152177998271131765e-01,3.004848348179051110e-01,2.857518698086969899e-01,2.710189047994888689e-01,2.731987822753410566e-01,2.860901266583981695e-01,2.989814710414552823e-01,3.118728154245123396e-01,3.112338858195212166e-01,3.093922651933701529e-01,3.075506445672191447e-01,3.061224489795918435e-01,3.061224489795918435e-01,3.061224489795918435e-01,3.061224489795918435e-01,3.110083812530536895e-01,3.202164843838087860e-01,3.294245875145638269e-01,3.386326906453188679e-01,3.385951065509076319e-01,3.367534859247566237e-01,3.349118652986056155e-01,3.341225993159694374e-01,3.396474611944225175e-01,3.451723230728755420e-01,3.506971849513285666e-01,3.496072462134025005e-01,3.403991430826474596e-01,3.311910399518924186e-01,3.219829368211373222e-01,3.211185026496786721e-01,3.229601232758296803e-01,3.248017439019806885e-01,3.242755665802234399e-01,2.874431540572031096e-01,2.506107415341828348e-01,2.137783290111624768e-01,1.870936219791784483e-01,1.778855188484233796e-01,1.686774157176682831e-01,1.594693125869132699e-01,1.663847859585822764e-01,1.811177509677904252e-01,1.958507159769984352e-01,2.105836809862065839e-01,2.541812305032509212e-01,2.983801255308750067e-01,3.425790205584994252e-01,3.762543691509753208e-01,3.836208516555792980e-01,3.909873341601833863e-01,3.983538166647874190e-01,3.970007892659827009e-01,3.896343067613786681e-01,3.822678242567745799e-01,3.749013417521705471e-01,3.625737587852820853e-01,3.496824144022251390e-01,3.367910700191679707e-01,3.092419288157258195e-01,2.245273800127790820e-01,1.398128312098323445e-01,5.509828240688557921e-02,9.159243808020443856e-02,2.444469500507367721e-01,3.973014620212711456e-01,5.501559739918054914e-01,6.714398466568941570e-01,7.856203254782572198e-01,8.998008042996201716e-01,9.842146803472786587e-01,8.553012365167075304e-01,7.263877926861364021e-01,5.974743488555651627e-01,4.906603525388059661e-01,4.133122862404632336e-01,3.359642199421205566e-01,2.586161536437788788e-01,2.340361558988236501e-01,2.285112940203706255e-01,2.229864321419175732e-01,2.173864020746420211e-01,2.100199195700379606e-01,2.026534370654339834e-01,1.952869545608299229e-01,1.879204720562258624e-01,1.805539895516218019e-01,1.731875070470177413e-01,1.658210245424136531e-01,1.536437779531704129e-01,1.389108129439622918e-01,1.241778479347541708e-01,1.094448829255460359e-01,1.017777276656519486e-01,9.441124516104787423e-02,8.704476265644381372e-02,7.674672078776287321e-02,5.833051452625270805e-02,3.991430826474254984e-02,2.149810200323238468e-02,1.150073288984104249e-02,7.817491637539010496e-03,4.134250385237025344e-03,4.510091329349916189e-04,0.000000000000000000e+00,0.000000000000000000e+00,0.000000000000000000e+00,2.367797947908370330e-03,1.525914233096531576e-02,2.815048671402243033e-02,4.104183109707954663e-02,5.934528507535584418e-02,8.328635321531906166e-02,1.072274213552822791e-01,1.311684894952455105e-01,1.536437779531698578e-01,1.757432254669823446e-01,1.978426729807942486e-01,2.191904386063814325e-01,2.339234036155897478e-01,2.486563686247977023e-01,2.633893336340060176e-01,2.713571616491901040e-01,2.695155410230390958e-01,2.676739203968880876e-01,2.658322997707370794e-01,2.626752358401924781e-01,2.589919945878904617e-01,2.553087533355883898e-01,2.516630961776976094e-01,2.498214755515465735e-01,2.479798549253955930e-01,2.461382342992445849e-01,2.454993046942533785e-01,2.473409253204043590e-01,2.491825459465554227e-01,2.510241665727064309e-01,2.563611079791030534e-01,2.637275904837071971e-01,2.710940729883111744e-01,2.784605554929153182e-01,2.771826962829330721e-01,2.753410756567820639e-01,2.734994550306310557e-01,2.739128800691545962e-01,2.812793625737587400e-01,2.886458450783626617e-01,2.960123275829668610e-01,3.013492689893636500e-01,3.050325102416657219e-01,3.087157514939677383e-01,3.123989927462696992e-01,3.097681061374826794e-01,3.060848648851806630e-01,3.024016236328785912e-01,2.999210734017363489e-01,3.036043146540384208e-01,3.072875559063403816e-01,3.109707971586423980e-01,3.129251700680272252e-01,3.129251700680272252e-01,3.129251700680272252e-01,3.129251700680272252e-01,3.129251700680272252e-01,3.129251700680272252e-01,3.129251700680272252e-01,3.127748336903822812e-01,3.109332130642312730e-01,3.090915924380802093e-01,3.072499718119292011e-01,3.061224489795918435e-01,3.061224489795918435e-01,3.061224489795918435e-01,3.061224489795918435e-01,2.856767016198750175e-01,2.562107716014583869e-01,2.267448415830425057e-01,1.972789115646258473e-01
2.815533980582524132e-01,2.868100627581397499e-01,2.920667274580271422e-01,2.973233921579144790e-01,3.005685780185592404e-01,2.992544118435873646e-01,2.979402456686155443e-01,2.966260794936437239e-01,2.993348709971571098e-01,3.045915356970444465e-01,3.098482003969318388e-01,3.151048650968191756e-01,3.179477551896154330e-01,3.205760875395591292e-01,3.232044198895027698e-01,3.246526846537574618e-01,3.220243523038137656e-01,3.193960199538701250e-01,3.167676876039264289e-01,3.169286059110658083e-01,3.195569382610095044e-01,3.221852706109532005e-01,3.248136029608968411e-01,3.252427184466019638e-01,3.252427184466019638e-01,3.252427184466019638e-01,3.252427184466019638e-01,3.252427184466019638e-01,3.252427184466019638e-01,3.252427184466019638e-01,3.246526846537574618e-01,3.233385184787856415e-01,3.220243523038137656e-01,3.207101861288419453e-01,3.203883495145631310e-01,3.203883495145631310e-01,3.203883495145631310e-01,3.191010030574479850e-01,2.980743442578985269e-01,2.770476854583490134e-01,2.560210266587995553e-01,2.398219170734324224e-01,2.319369200236013617e-01,2.240519229737703288e-01,2.161669259239393237e-01,2.047417261170412783e-01,1.916000643673228809e-01,1.784584026176045390e-01,1.653167408678861416e-01,2.113930161454700418e-01,2.587029984444560449e-01,3.060129807434423532e-01,3.416832054926782214e-01,3.482540363675373785e-01,3.548248672423965910e-01,3.613956981172558036e-01,3.671887571742744605e-01,3.724454218741618527e-01,3.777020865740491895e-01,3.829587512739365818e-01,3.799549428740009449e-01,3.760124443490854840e-01,3.720699458241699675e-01,3.576677573351932926e-01,3.024727779863758959e-01,2.472777986375585546e-01,1.920828192887412134e-01,1.422517835112374618e-01,9.757013356219543243e-02,5.288848361315280633e-02,8.206833664110180226e-03,2.209944751381200945e-01,4.917127071823195195e-01,7.624309392265189445e-01,9.853564340503152552e-01,8.657673121278777195e-01,7.461781902054400728e-01,6.265890682830024261e-01,5.312181515850455948e-01,4.681381751863972207e-01,4.050581987877488466e-01,3.419782223891012496e-01,3.165531298610739785e-01,3.047256342863274292e-01,2.928981387115808244e-01,2.813388403153999073e-01,2.760821756155125151e-01,2.708255109156252338e-01,2.655688462157378416e-01,2.607681167194121352e-01,2.568256181944966188e-01,2.528831196695811023e-01,2.489406211446655859e-01,2.432816606769297729e-01,2.367108298020705603e-01,2.301399989272113755e-01,2.235691680523521629e-01,2.169983371774929504e-01,2.104275063026337378e-01,2.038566754277745252e-01,1.965885318886446687e-01,1.873893686638417599e-01,1.781902054390388790e-01,1.689910422142359980e-01,1.605428310894169985e-01,1.526578340395859379e-01,1.447728369897549883e-01,1.368878399399239276e-01,1.347690822292549606e-01,1.334549160542831125e-01,1.321407498793112645e-01,1.325162259293031775e-01,1.404012229791341271e-01,1.482862200289651877e-01,1.561712170787962484e-01,1.672745802714153962e-01,1.817304081961056417e-01,1.961862361207958871e-01,2.106420640454861604e-01,2.282357989593946368e-01,2.466341254090006485e-01,2.650324518586061884e-01,2.828943839510805192e-01,2.960360457007991108e-01,3.091777074505173695e-01,3.223193692002359612e-01,3.300970873786407966e-01,3.300970873786407966e-01,3.300970873786407966e-01,3.300970873786407966e-01,3.282197071286810375e-01,3.255913747787373969e-01,3.229630424287937007e-01,3.203883495145631310e-01,3.203883495145631310e-01,3.203883495145631310e-01,3.203883495145631310e-01,3.203883495145631310e-01,3.203883495145631310e-01,3.203883495145631310e-01,3.203883495145631310e-01,3.203883495145631310e-01,3.203883495145631310e-01,3.203883495145631310e-01,3.203883495145631310e-01,3.228557635573673368e-01,3.254840959073110884e-01,3.281124282572547290e-01,3.310625972214771284e-01,3.350050957463927004e-01,3.389475942713082168e-01,3.428900927962237888e-01,3.439360617926299768e-01,3.426218956176581010e-01,3.413077294426862807e-01,3.399935632677144604e-01,3.409322533926942844e-01,3.422464195676661602e-01,3.435605857426379806e-01,3.448747519176098009e-01,3.461889180925816767e-01,3.475030842675534970e-01,3.488172504425253173e-01,3.488977095960950625e-01,3.475835434211232422e-01,3.462693772461513664e-01,3.449552110711795461e-01,3.446601941747572950e-01,3.446601941747572950e-01,3.446601941747572950e-01,3.446601941747572950e-01,3.446601941747572950e-01,3.446601941747572950e-01,3.446601941747572950e-01,3.446601941747572950e-01,3.446601941747572950e-01,3.446601941747572950e-01,3.446601941747572950e-01,3.382771013248942471e-01,3.290779381000912274e-01,3.198787748752884297e-01,3.106796116504854099e-01
4.430379746835442778e-01,4.464647877473948978e-01,4.498916008112455178e-01,4.533184138750961378e-01,4.572697391425973867e-01,4.624099587383733168e-01,4.675501783341491913e-01,4.726903979299251213e-01,4.736345198964962422e-01,4.719211133645709322e-01,4.702077068326456222e-01,4.684943003007203122e-01,4.699279669906986645e-01,4.716413735226239190e-01,4.733547800545492290e-01,4.750681865864745390e-01,4.767815931183998490e-01,4.784949996503252145e-01,4.802084061822505245e-01,4.801035037415203877e-01,4.783900972095950777e-01,4.766766906776697676e-01,4.749632841457444576e-01,4.746835443037974445e-01,4.746835443037974445e-01,4.746835443037974445e-01,4.746835443037974445e-01,4.746835443037974445e-01,4.746835443037974445e-01,4.746835443037974445e-01,4.746835443037974445e-01,4.746835443037974445e-01,4.746835443037974445e-01,4.746835443037974445e-01,4.656269669207637185e-01,4.536331211972865485e-01,4.416392754738093784e-01,4.287013077837613095e-01,4.012868032729562939e-01,3.738722987621512783e-01,3.464577942513462627e-01,3.240786068955871513e-01,3.103713546401846712e-01,2.966641023847821357e-01,2.829568501293797667e-01,3.050213301629483009e-01,3.444296803972304866e-01,3.838380306315124502e-01,4.232463808657945803e-01,4.458703405832575295e-01,4.681446254982864486e-01,4.904189104133155341e-01,5.107350164347157495e-01,5.261556752220434285e-01,5.415763340093712186e-01,5.569969927966990086e-01,5.582208546052171982e-01,5.496538219455906482e-01,5.410867892859640982e-01,5.325197566263374371e-01,5.070284635289180608e-01,4.796139590181134338e-01,4.521994545073084737e-01,4.066018602699498774e-01,2.900902160990286305e-01,1.735785719281073280e-01,5.706692775718608113e-02,1.293796769004825209e-01,3.829638436254255152e-01,6.365480103503717846e-01,8.901321770753181095e-01,9.506958528568429934e-01,9.678299181760962044e-01,9.849639834953493045e-01,9.851038534163243376e-01,8.634519896496271052e-01,7.418001258829299838e-01,6.201482621162327513e-01,5.322749842646341545e-01,4.894398209665012933e-01,4.466046576683684322e-01,4.037694943702361816e-01,3.861109168473320641e-01,3.775438841877054585e-01,3.689768515280789085e-01,3.604098188684523585e-01,3.518427862088258085e-01,3.432757535491993139e-01,3.347087208895727639e-01,3.273305825582208950e-01,3.221903629624449650e-01,3.170501433666690350e-01,3.119099237708930494e-01,3.067697041751172304e-01,3.016294845793412449e-01,2.964892649835653149e-01,2.913490453877893849e-01,2.730610532205050567e-01,2.542135813693265911e-01,2.353661095181481810e-01,2.197006783691168030e-01,2.128470522414155630e-01,2.059934261137142952e-01,1.991397999860130552e-01,1.922861738583118152e-01,1.854325477306105474e-01,1.785789216029093907e-01,1.717252954752081506e-01,1.799076858521573841e-01,1.901881250437092441e-01,2.004685642352611319e-01,2.101195887824323094e-01,2.169732149101334662e-01,2.238268410378347062e-01,2.306804671655359740e-01,2.450870690258057649e-01,2.673613539408348228e-01,2.896356388558639083e-01,3.119099237708929939e-01,3.314567452269386316e-01,3.503042170781173192e-01,3.691516889292955073e-01,3.872998111756064121e-01,3.992936568990837487e-01,4.112875026225608077e-01,4.232813483460381443e-01,4.289810476257081562e-01,4.255542345618574807e-01,4.221274214980069162e-01,4.187006084341562961e-01,4.152737953703056206e-01,4.118469823064550561e-01,4.084201692426043806e-01,4.050283236589971581e-01,4.033149171270718480e-01,4.016015105951465380e-01,3.998881040632212280e-01,3.976152178474019472e-01,3.941884047835513827e-01,3.907615917197007072e-01,3.873347786558500871e-01,3.871599412546331553e-01,3.888733477865584653e-01,3.905867543184837754e-01,3.923001608504090854e-01,3.956220714735295685e-01,3.990488845373801885e-01,4.024756976012308085e-01,4.059025106650813730e-01,4.093293237289320485e-01,4.127561367927826130e-01,4.161829498566332886e-01,4.196097629204839086e-01,4.230365759843345841e-01,4.264633890481851486e-01,4.298902021120357131e-01,4.333170151758863886e-01,4.367438282397369531e-01,4.401706413035876286e-01,4.427582348415973201e-01,4.410448283096720101e-01,4.393314217777467001e-01,4.376180152458214456e-01,4.375131128050912532e-01,4.392265193370165077e-01,4.409399258689418732e-01,4.426533324008671277e-01,4.443667389327924377e-01,4.460801454647178033e-01,4.477935519966430578e-01,4.490873487656479868e-01,4.456605357017974223e-01,4.422337226379467467e-01,4.388069095740961267e-01,4.360444786348696145e-01,4.343310721029443044e-01,4.326176655710189944e-01,4.309042590390936844e-01,4.101685432547736432e-01,3.810406322120429290e-01,3.519127211693129920e-01,3.227848101265822778e-01
2.465753424657534110e-01,2.484295769318095870e-01,2.502838113978657630e-01,2.521380458639219113e-01,2.545599031257095302e-01,2.582683720578218822e-01,2.619768409899341788e-01,2.656853099220464753e-01,2.693937788541587719e-01,2.731022477862711240e-01,2.768107167183834205e-01,2.805191856504957171e-01,2.842276545826080691e-01,2.879361235147203657e-01,2.916445924468326623e-01,2.953530613789450143e-01,2.990615303110573109e-01,3.027699992431696074e-01,3.064784681752819040e-01,3.072352985695905869e-01,3.053810641035343831e-01,3.035268296374782349e-01,3.016725951714220866e-01,3.029213653220313440e-01,3.047755997880874923e-01,3.066298342541436406e-01,3.084840687201997889e-01,3.103383031862559371e-01,3.121925376523120854e-01,3.140467721183682337e-01,3.134034662832059226e-01,3.096949973510936260e-01,3.059865284189812740e-01,3.022780594868689774e-01,2.999697267842276749e-01,2.981154923181715266e-01,2.962612578521153228e-01,2.925906304397186686e-01,2.610686445167639258e-01,2.295466585938091830e-01,1.980246726708544680e-01,1.760387497161886305e-01,1.704760463180201302e-01,1.649133429198516576e-01,1.593506395216832128e-01,1.625293271777794313e-01,1.699462650420040521e-01,1.773632029062286453e-01,1.847801407704532939e-01,2.285249375614923362e-01,2.730265647468399504e-01,3.175281919321877311e-01,3.524937561492469396e-01,3.636191629455838292e-01,3.747445697419207744e-01,3.858699765382577196e-01,3.871187466888670881e-01,3.815560432906985877e-01,3.759933398925300874e-01,3.704306364943615870e-01,3.598728524937561124e-01,3.487474456974193338e-01,3.376220389010823331e-01,3.106031938242646562e-01,2.215999394535689837e-01,1.325966850828732835e-01,4.359343071217758325e-02,7.379096344509195049e-02,2.184212517974705725e-01,3.630515401498510819e-01,5.076818285022316468e-01,6.371755089684395523e-01,7.632634526602584124e-01,8.893513963520773835e-01,9.859229546658608845e-01,8.709604177703789141e-01,7.559978808748969437e-01,6.410353439794149732e-01,5.395822296223420356e-01,4.561416786498148079e-01,3.727011276772875803e-01,2.892605767047614629e-01,2.589495194126997246e-01,2.478241126163627794e-01,2.366987058200258065e-01,2.260273972602739601e-01,2.260273972602739601e-01,2.260273972602739601e-01,2.260273972602739601e-01,2.234541739196246601e-01,2.160372360554000393e-01,2.086202981911753906e-01,2.012033603269507420e-01,1.913645652009386133e-01,1.802391584046016682e-01,1.691137516082646952e-01,1.579883448119277500e-01,1.450843865889654971e-01,1.321047453265723759e-01,1.191251040641792547e-01,1.051615832891851232e-01,8.847347309467967769e-02,7.178536290017423216e-02,5.509725270566879357e-02,4.264739271929166020e-02,3.337622038901086330e-02,2.410504805873018089e-02,1.483387572844938052e-02,1.532581548474984574e-02,1.718004995080600616e-02,1.903428441686216485e-02,2.225081359267382791e-02,3.152198592295450685e-02,4.079315825323530376e-02,5.006433058351611454e-02,6.569287822598930682e-02,8.794369181866323881e-02,1.101945054113371569e-01,1.324453190040110750e-01,1.605994096722919429e-01,1.902671611291908982e-01,2.199349125860890763e-01,2.478997956557932036e-01,2.608794369181864914e-01,2.738590781805794738e-01,2.868387194429727893e-01,2.960342087338226902e-01,2.997426776659350978e-01,3.034511465980473388e-01,3.071596155301596354e-01,3.042458185120714975e-01,2.986831151139030527e-01,2.931204117157344968e-01,2.875198667978506872e-01,2.801029289336259831e-01,2.726859910694013900e-01,2.652690532051768524e-01,2.620903655490803841e-01,2.676530689472488289e-01,2.732157723454173848e-01,2.787784757435857741e-01,2.843411791417542189e-01,2.899038825399227193e-01,2.954665859380911641e-01,3.010292893362596645e-01,2.996291531067887814e-01,2.977749186407326332e-01,2.959206841746764849e-01,2.958828426549608981e-01,3.014455460531294539e-01,3.070082494512978433e-01,3.125709528494663991e-01,3.130250510860516644e-01,3.093165821539393123e-01,3.056081132218270158e-01,3.018996442897147747e-01,3.124952698100354476e-01,3.254749110724283745e-01,3.384545523348216900e-01,3.478014077045336050e-01,3.385302353742526416e-01,3.292590630439719557e-01,3.199878907136912698e-01,3.133277832437750821e-01,3.096193143116628410e-01,3.059108453795504334e-01,3.022023764474381924e-01,2.754862635283442107e-01,2.421100431393328756e-01,2.087338227503224286e-01,1.774767274653750726e-01,1.700597896011505072e-01,1.626428517369257754e-01,1.552259138727012378e-01,1.564368425035945476e-01,1.712707182320440114e-01,1.861045939604931143e-01,2.009384696889425781e-01,2.376447438129106471e-01,2.840006054643152700e-01,3.303564671157186439e-01,3.767123287671232945e-01
2.805755395683453002e-01,2.747327000278230180e-01,2.688898604873007359e-01,2.630470209467785092e-01,2.566079732898763899e-01,2.488175205691800229e-01,2.410270678484836560e-01,2.332366151277872890e-01,2.337930760364084481e-01,2.396359155769307303e-01,2.454787551174529847e-01,2.513215946579752669e-01,2.571644341984975490e-01,2.630072737390198312e-01,2.688501132795421134e-01,2.729440756786836175e-01,2.709964624985095050e-01,2.690488493183353924e-01,2.671012361381612799e-01,2.692873325648872940e-01,2.751301721054095761e-01,2.809730116459318583e-01,2.868158511864541405e-01,2.845105131364521478e-01,2.806152867761039782e-01,2.767200604157558086e-01,2.753289081442028552e-01,2.889622004054214766e-01,3.025954926666400979e-01,3.162287849278587748e-01,3.193688143407925617e-01,3.096307484399221099e-01,2.998926825390516582e-01,2.901546166381811509e-01,2.848284907985214054e-01,2.809332644381732358e-01,2.770380380778250662e-01,2.712349457450616286e-01,2.361779085019279079e-01,2.011208712587941594e-01,1.660638340156604109e-01,1.410230931277078048e-01,1.332326404070114378e-01,1.254421876863150431e-01,1.176517349656187178e-01,1.256011765173496164e-01,1.411820819587423781e-01,1.567629874001350565e-01,1.723438928415278182e-01,2.203585198139829393e-01,2.690488493183350593e-01,3.177391788226874292e-01,3.558567510632377195e-01,3.675424301442822284e-01,3.792281092253268482e-01,3.909137883063714125e-01,3.933781151874081172e-01,3.894828888270599476e-01,3.855876624667117225e-01,3.816924361063635529e-01,3.673039468977304378e-01,3.517230414563378704e-01,3.361421360149450810e-01,3.058547637028505295e-01,2.182121705950162138e-01,1.305695774871818704e-01,4.292698437934749922e-02,8.744385706904088396e-02,2.588338169243591391e-01,4.302237767796796009e-01,6.016137366350000626e-01,7.141778290075115887e-01,8.135061011963905520e-01,9.128343733852695152e-01,9.844985889741261209e-01,8.579037322628099149e-01,7.313088755514935979e-01,6.047140188401773919e-01,4.989864462021547098e-01,4.210819189951908181e-01,3.431773917882269820e-01,2.652728645812641450e-01,2.403116181088279235e-01,2.344687785683056136e-01,2.286259390277833314e-01,2.226241106562264482e-01,2.128860447553559687e-01,2.031479788544856002e-01,1.934099129536151207e-01,1.850232521165388611e-01,1.791804125760165789e-01,1.733375730354942967e-01,1.674947334949719868e-01,1.603799833061728686e-01,1.525895305854764739e-01,1.447990778647800791e-01,1.370086251440837122e-01,1.236138161294170201e-01,1.099805238681983433e-01,9.634723160697966637e-02,8.168051194403617987e-02,6.415199332246931951e-02,4.662347470090244528e-02,2.909495607933557798e-02,1.935689017846498744e-02,1.546166381811679529e-02,1.156643745776865344e-02,7.671211097420459549e-03,1.232163440518296849e-02,1.816447394570525758e-02,2.400731348622755015e-02,3.056560276640560639e-02,4.030366866727595754e-02,5.004173456814643706e-02,5.977980046901692351e-02,7.619539727334129209e-02,9.956675543543044848e-02,1.229381135975196049e-01,1.463094717596087890e-01,1.665805477165225867e-01,1.860566795182638233e-01,2.055328113200045326e-01,2.246114710441587670e-01,2.401923764855517507e-01,2.557732819269443181e-01,2.713541873683372740e-01,2.789856512579991787e-01,2.750904248976509536e-01,2.711951985373027840e-01,2.672999721769546699e-01,2.661870503597122406e-01,2.661870503597122406e-01,2.661870503597122406e-01,2.661075559441949956e-01,2.622123295838467150e-01,2.583171032234986009e-01,2.544218768631504313e-01,2.530704717993560449e-01,2.569656981597042145e-01,2.608609245200524396e-01,2.647561508804006092e-01,2.674192138002304819e-01,2.693668269804045945e-01,2.713144401605787071e-01,2.732620533407528196e-01,2.770380380778249552e-01,2.809332644381732358e-01,2.848284907985213499e-01,2.882467506657656608e-01,2.901943638459397734e-01,2.921419770261138860e-01,2.940895902062879985e-01,2.960372033864620556e-01,2.979848165666361681e-01,2.999324297468102807e-01,3.018800429269843377e-01,3.054970388330219278e-01,3.093922651933700974e-01,3.132874915537183225e-01,3.171827179140664366e-01,3.210779442744147172e-01,3.249731706347628313e-01,3.288683969951110009e-01,3.281926944632140297e-01,3.223498549226918031e-01,3.165070153821694654e-01,3.106641758416472388e-01,2.987797607218096729e-01,2.851464684605908295e-01,2.715131761993723192e-01,2.572439286140150716e-01,2.358201836321002498e-01,2.143964386501849284e-01,1.929726936682701344e-01,1.677729639492833991e-01,1.366111530664974316e-01,1.054493421837123107e-01,7.428753130092635715e-02,1.079931634802643314e-01,1.703167852458362386e-01,2.326404070114065359e-01,2.949640287769784153e-01
3.599999999999999867e-01,3.569060773480662863e-01,3.538121546961325858e-01,3.507182320441988854e-01,3.495185477505919347e-01,3.526124704025256351e-01,3.557063930544593355e-01,3.588003157063930360e-01,3.609471191791633893e-01,3.624940805051302117e-01,3.640410418310970897e-01,3.655880031570639122e-01,3.685556432517758663e-01,3.716495659037095667e-01,3.747434885556432671e-01,3.774901341752170958e-01,3.790370955011839182e-01,3.805840568271507407e-01,3.821310181531175632e-01,3.836779794790844411e-01,3.852249408050512636e-01,3.867719021310181415e-01,3.883188634569850195e-01,3.911602209944751163e-01,3.942541436464088167e-01,3.973480662983425726e-01,4.004419889502762731e-01,4.035359116022099735e-01,4.066298342541436184e-01,4.097237569060773188e-01,4.093449092344119689e-01,4.047040252565114460e-01,4.000631412786109231e-01,3.954222573007103447e-01,3.861089187056038763e-01,3.752801894238358416e-01,3.644514601420678623e-01,3.532438831886346442e-01,3.362273086029992641e-01,3.192107340173638841e-01,3.021941594317285040e-01,2.823362273086031382e-01,2.575848460931334794e-01,2.328334648776638205e-01,2.080820836621943282e-01,2.333385951065507224e-01,2.828413575374900679e-01,3.323441199684290526e-01,3.818468823993683703e-01,3.964956590370954381e-01,4.104183109707970623e-01,4.243409629044987419e-01,4.387056037884766724e-01,4.541752170481451190e-01,4.696448303078136211e-01,4.851144435674821787e-01,4.877663772691397392e-01,4.815785319652723384e-01,4.753906866614049376e-01,4.692028413575375367e-01,4.352328334648776775e-01,3.981057616416736611e-01,3.609786898184691450e-01,3.131176006314134730e-01,2.233938437253359388e-01,1.336700868192584324e-01,4.394632991318092596e-02,1.381215469613259472e-01,4.088397790055218195e-01,6.795580110497212445e-01,9.502762430939206695e-01,9.570639305445938216e-01,9.044672454617207480e-01,8.518705603788477854e-01,7.949171270718242699e-01,7.067403314917136692e-01,6.185635359116029575e-01,5.303867403314923568e-01,4.627624309392266988e-01,4.225414364640884823e-01,3.823204419889503214e-01,3.420994475138126045e-01,3.314285714285714057e-01,3.314285714285714057e-01,3.314285714285714057e-01,3.312391475927387585e-01,3.265982636148381801e-01,3.219573796369377128e-01,3.173164956590371344e-01,3.121389108129440371e-01,3.059510655090765807e-01,2.997632202052091799e-01,2.935753749013417790e-01,2.813259668508289457e-01,2.658563535911604436e-01,2.503867403314918860e-01,2.349171270718233562e-01,2.313180741910023930e-01,2.282241515390686926e-01,2.251302288871349921e-01,2.212154696132597742e-01,2.150276243093923456e-01,2.088397790055249448e-01,2.026519337016575162e-01,1.964640883977901153e-01,1.902762430939226868e-01,1.840883977900553414e-01,1.779005524861879128e-01,1.839305445935279226e-01,1.916653512233622014e-01,1.994001578531964525e-01,2.068508287292817327e-01,2.130386740331490503e-01,2.192265193370164789e-01,2.254143646408838797e-01,2.406945540647195403e-01,2.654459352801892269e-01,2.901973164956588858e-01,3.149486977111285446e-01,3.310812943962113120e-01,3.450039463299131581e-01,3.589265982636146712e-01,3.723756906077346218e-01,3.816574585635358341e-01,3.909392265193368243e-01,4.002209944751380366e-01,4.050828729281767959e-01,4.035359116022099180e-01,4.019889502762430955e-01,4.004419889502762731e-01,4.000000000000000222e-01,4.000000000000000222e-01,4.000000000000000222e-01,3.999052880820837541e-01,3.952644041041831202e-01,3.906235201262825973e-01,3.859826361483820745e-01,3.833622730860299921e-01,3.849092344119968145e-01,3.864561957379636925e-01,3.880031570639305150e-01,3.885714285714285676e-01,3.885714285714285676e-01,3.885714285714285676e-01,3.885714285714285676e-01,3.929281767955800087e-01,3.975690607734806425e-01,4.022099447513811099e-01,4.060931333859509884e-01,4.076400947119178664e-01,4.091870560378847443e-01,4.107340173638516223e-01,4.114285714285714213e-01,4.114285714285714213e-01,4.114285714285714213e-01,4.114285714285714213e-01,4.140805051302288708e-01,4.171744277821625158e-01,4.202683504340962717e-01,4.226045777426993277e-01,4.210576164167324498e-01,4.195106550907656273e-01,4.179636937647988049e-01,4.062509865824784905e-01,3.830465666929759871e-01,3.598421468034728732e-01,3.366377269139703698e-01,3.194317284925023981e-01,3.039621152328336740e-01,2.884925019731653384e-01,2.739068666140490049e-01,2.692659826361484821e-01,2.646250986582478482e-01,2.599842146803473253e-01,2.775374901341737810e-01,3.301341752170475208e-01,3.827308602999198728e-01,4.353275453827935570e-01,4.578689818468821837e-01,4.671507498026834515e-01,4.764325177584844417e-01,4.857142857142857095e-01
2.611111111111111271e-01,2.596071209330877982e-01,2.581031307550644693e-01,2.565991405770411404e-01,2.555555555555555358e-01,2.555555555555555358e-01,2.555555555555555358e-01,2.555555555555555358e-01,2.527931246163290235e-01,2.482811540822590368e-01,2.437691835481890779e-01,2.392572130141191189e-01,2.402701043585021567e-01,2.417740945365254857e-01,2.432780847145487868e-01,2.444444444444444364e-01,2.444444444444444364e-01,2.444444444444444364e-01,2.444444444444444364e-01,2.468385512584407582e-01,2.513505217925107171e-01,2.558624923265807038e-01,2.603744628606506906e-01,2.623695518723143105e-01,2.638735420503376394e-01,2.653775322283609683e-01,2.666666666666666630e-01,2.666666666666666630e-01,2.666666666666666630e-01,2.666666666666666630e-01,2.680171884591773801e-01,2.710251688152240379e-01,2.740331491712706957e-01,2.770411295273174090e-01,2.766421117249846517e-01,2.751381215469613228e-01,2.736341313689379939e-01,2.708410067526090814e-01,2.482811540822591478e-01,2.257213014119091865e-01,2.031614487415592252e-01,1.833640270104359149e-01,1.683241252302026258e-01,1.532842234499693368e-01,1.382443216697361033e-01,1.302946593001841902e-01,1.257826887661141757e-01,1.212707182320442306e-01,1.167587476979742439e-01,1.667587476979741079e-01,2.178944137507670131e-01,2.690300798035601959e-01,3.081338244321669695e-01,3.171577655003068874e-01,3.261817065684468608e-01,3.352056476365868343e-01,3.371086556169429760e-01,3.341006752608962627e-01,3.310926949048496049e-01,3.280847145488029470e-01,3.277777777777777790e-01,3.277777777777777790e-01,3.277777777777777790e-01,3.139656230816457172e-01,2.462860650705958609e-01,1.786065070595460047e-01,1.109269490484961485e-01,6.703499079189687015e-02,4.597912829957052916e-02,2.492326580724390367e-02,3.867403314917278179e-03,2.209944751381200945e-01,4.917127071823195195e-01,7.624309392265189445e-01,9.845303867403331077e-01,8.581952117863733687e-01,7.318600368324136296e-01,6.055248618784538905e-01,4.998158379373852656e-01,4.216083486801721070e-01,3.434008594229589484e-01,2.651933701657467890e-01,2.356046654389196970e-01,2.235727440147330658e-01,2.115408225905464346e-01,1.997544505831798933e-01,1.937384898710865777e-01,1.877225291589933454e-01,1.817065684469000297e-01,1.788213627992633337e-01,1.818293431553099915e-01,1.848373235113566493e-01,1.878453038674033071e-01,1.839779005524863065e-01,1.764579496623696619e-01,1.689379987722530174e-01,1.614180478821363729e-01,1.495702885205648647e-01,1.375383670963782057e-01,1.255064456721915744e-01,1.142725598526704855e-01,1.052486187845304982e-01,9.622467771639051093e-02,8.720073664825053750e-02,7.989564149785147174e-02,7.387968078575815611e-02,6.786372007366492376e-02,6.184775936157159426e-02,5.847145488029469040e-02,5.546347452424803259e-02,5.245549416820137478e-02,5.027624309392264568e-02,5.178023327194595377e-02,5.328422344996928267e-02,5.478821362799261158e-02,6.660527931246137956e-02,8.916513198281134089e-02,1.117249846531612884e-01,1.342848373235112636e-01,1.532535297728664925e-01,1.713014119091466891e-01,1.893492940454264140e-01,2.077041129527312235e-01,2.287599754450581335e-01,2.498158379373844884e-01,2.708717004297113706e-01,2.790362185389811400e-01,2.685082872928176712e-01,2.579803560466544798e-01,2.474524248004913440e-01,2.465930018416205849e-01,2.496009821976672149e-01,2.526089625537139005e-01,2.554020871700430906e-01,2.478821362799263350e-01,2.403621853898097738e-01,2.328422344996932125e-01,2.297421731123387989e-01,2.357581338244320590e-01,2.417740945365254579e-01,2.477900552486186903e-01,2.471454880294660372e-01,2.426335174953959950e-01,2.381215469613260638e-01,2.336095764272560216e-01,2.375690607734805837e-01,2.420810313075506259e-01,2.465930018416205571e-01,2.529465930018413022e-01,2.649785144260281000e-01,2.770104358502146202e-01,2.890423572744014180e-01,2.903007980356048234e-01,2.827808471454880679e-01,2.752608962553714789e-01,2.677409453652549454e-01,2.744014732965008307e-01,2.834254143646406932e-01,2.924493554327807776e-01,2.987722529158994278e-01,2.912523020257826722e-01,2.837323511356661387e-01,2.762124002455496052e-01,2.729281767955800686e-01,2.744321669736033975e-01,2.759361571516267819e-01,2.774401473296500553e-01,2.532842234499702028e-01,2.217004297114798517e-01,1.901166359729903332e-01,1.608655616942910038e-01,1.578575813382443738e-01,1.548496009821976882e-01,1.518416206261510581e-01,1.476672805402088617e-01,1.416513198281154629e-01,1.356353591160222305e-01,1.296193984039288316e-01,1.653468385512573968e-01,2.194904849600979868e-01,2.736341313689372168e-01,3.277777777777777790e-01
2.371794871794871695e-01,2.406502337441563943e-01,2.441209803088256192e-01,2.475917268734948162e-01,2.473438164045898835e-01,2.386669499929168492e-01,2.299900835812438149e-01,2.213132171695707806e-01,2.221986117013741158e-01,2.291401048307125654e-01,2.360815979600509873e-01,2.430230910893894092e-01,2.388086131180053862e-01,2.336024932710015767e-01,2.283963734239977394e-01,2.255276951409548036e-01,2.307338149879586409e-01,2.359399348349624503e-01,2.411460546819662876e-01,2.509562260943475898e-01,2.648392123530244890e-01,2.787221986117013328e-01,2.926051848703782321e-01,2.876115597110072142e-01,2.789346932993342354e-01,2.702578268876612011e-01,2.643079756339424824e-01,2.747202153279501013e-01,2.851324550219577203e-01,2.955446947159653948e-01,2.973863153421164585e-01,2.887094489304434242e-01,2.800325825187703899e-01,2.713557161070973001e-01,2.705411531378382195e-01,2.722765264201728042e-01,2.740118997025074443e-01,2.734098314208813774e-01,2.369669924918545445e-01,2.005241535628277116e-01,1.640813146338008233e-01,1.397506728998441916e-01,1.362799263351749668e-01,1.328091797705057420e-01,1.293384332058365171e-01,1.235302450772064187e-01,1.165887519478679690e-01,1.096472588185295749e-01,1.027057656891911253e-01,1.637625726023514416e-01,2.262360107663970443e-01,2.887094489304430356e-01,3.333333333333333148e-01,3.333333333333333148e-01,3.333333333333333148e-01,3.333333333333333148e-01,3.353874486471171146e-01,3.388581952117863394e-01,3.423289417764555642e-01,3.457996883411247890e-01,3.368040798980025397e-01,3.263918402039950317e-01,3.159796005099873573e-01,2.917552061198476210e-01,2.136634084147900903e-01,1.355716107097325596e-01,5.747981300467502885e-02,6.438589035274117078e-02,1.528899277518052102e-01,2.413939651508704154e-01,3.298980025499356206e-01,4.906502337441554507e-01,6.676583085422858055e-01,8.446663833404162158e-01,9.844878878028064939e-01,8.578056381923798712e-01,7.311233885819532485e-01,6.044411389715265148e-01,5.000708315625446154e-01,4.254497804221563095e-01,3.508287292817680036e-01,2.762076781413806970e-01,2.513103839070690571e-01,2.443688907777306074e-01,2.374273976483921578e-01,2.302025782688766897e-01,2.163195920101997904e-01,2.024366057515230577e-01,1.885536194928461584e-01,1.782830429239269376e-01,1.748122963592577128e-01,1.713415497945884880e-01,1.678708032299192632e-01,1.587335316617086156e-01,1.465859186853663565e-01,1.344383057090240696e-01,1.222906927326817828e-01,1.134721631959201560e-01,1.047952967842471078e-01,9.611843037257404576e-02,8.467913302167473510e-02,6.559002691599399859e-02,4.650092081031327595e-02,2.741181470463254638e-02,2.220569485762852874e-02,2.741181470463236250e-02,3.261793455163612687e-02,3.782405439863996410e-02,2.932426689332778835e-02,1.891202719932012083e-02,8.499787505312449837e-03,2.549936251593629653e-03,1.643292251027033898e-02,3.031590876894723480e-02,4.419889502762412714e-02,5.808188128630101948e-02,7.196486754497791183e-02,8.584785380365481111e-02,9.973084006233169652e-02,1.260447655475274986e-01,1.555461113472162704e-01,1.850474571469042928e-01,2.124238560702647050e-01,2.211007224819378780e-01,2.297775888936108291e-01,2.384544553052839744e-01,2.450063748406289266e-01,2.484771214052981791e-01,2.519478679699673762e-01,2.554186145346365455e-01,2.489729423431081556e-01,2.385607026491006200e-01,2.281484629550928345e-01,2.180903810738063775e-01,2.250318742031449104e-01,2.319733673324832768e-01,2.389148604618216432e-01,2.447230485904518804e-01,2.481937951551210497e-01,2.516645417197903023e-01,2.551352882844594716e-01,2.542144779713841340e-01,2.507437314067148537e-01,2.472729848420456844e-01,2.438022382773764041e-01,2.517353732823344736e-01,2.604122396940076190e-01,2.690891061056805977e-01,2.747910468904944947e-01,2.713203003258252144e-01,2.678495537611560451e-01,2.643788071964867648e-01,2.676016432922508903e-01,2.762785097039240356e-01,2.849553761155970144e-01,2.936322425272699377e-01,2.918968692449355751e-01,2.884261226802664058e-01,2.849553761155971254e-01,2.826179345516361407e-01,2.860886811163054211e-01,2.895594276809745904e-01,2.930301742456437597e-01,2.940572319025357984e-01,2.923218586202012137e-01,2.905864853378665735e-01,2.888511120555319334e-01,2.844241393965152298e-01,2.792180195495113093e-01,2.740118997025075553e-01,2.665391698540872656e-01,2.335670774897300461e-01,2.005949851253719940e-01,1.676228927610148300e-01,1.433984983708743444e-01,1.329862586768665311e-01,1.225740189828589954e-01,1.121617792888511961e-01,1.258322708598947071e-01,1.501274968125795861e-01,1.744227227652638268e-01,1.987179487179487059e-01
2.916666666666666852e-01,2.991866175567833297e-01,3.067065684468999187e-01,3.142265193370165632e-01,3.205954573357888138e-01,3.243554327808471083e-01,3.281154082259054583e-01,3.318753836709637528e-01,3.310313075506445268e-01,3.272713321055862323e-01,3.235113566605278823e-01,3.197513812154695878e-01,3.280770411295272915e-01,3.374769797421731110e-01,3.468769183548188750e-01,3.533225905463474592e-01,3.495626151012891647e-01,3.458026396562308147e-01,3.420426642111725202e-01,3.452655003069367567e-01,3.546654389195825763e-01,3.640653775322283403e-01,3.734653161448741043e-01,3.718538980969920416e-01,3.680939226519336915e-01,3.643339472068753970e-01,3.616482504604051629e-01,3.654082259054634574e-01,3.691682013505217519e-01,3.729281767955801019e-01,3.741559238796807740e-01,3.722759361571516545e-01,3.703959484346224795e-01,3.685159607120933600e-01,3.637968078575813946e-01,3.581568446899938696e-01,3.525168815224064001e-01,3.450352977286680889e-01,3.093155310006140413e-01,2.735957642725599381e-01,2.378759975445058350e-01,2.111341313689380772e-01,1.998542050337630827e-01,1.885742786985881159e-01,1.772943523634132046e-01,1.913367096378145171e-01,2.176565377532227730e-01,2.439763658686308623e-01,2.702961939840391459e-01,3.131906077348065032e-01,3.564303253529769733e-01,3.996700429711477209e-01,4.321669736034376985e-01,4.378069367710251680e-01,4.434468999386126375e-01,4.490868631062001071e-01,4.491635972989564407e-01,4.454036218538981462e-01,4.416436464088397962e-01,4.378836709637814462e-01,4.206184775936157583e-01,4.018186003683243412e-01,3.830187231430327577e-01,3.477209944751389337e-01,2.480816451810933243e-01,1.484422958870476872e-01,4.880294659300205007e-02,1.218155310006138470e-01,3.605739717618143825e-01,5.993324125230180544e-01,8.380908532842217262e-01,9.080340699815836469e-01,9.399938612645794000e-01,9.719536525475751532e-01,9.850368324125245989e-01,8.628376304481290004e-01,7.406384284837335130e-01,6.184392265193379146e-01,5.220227133210562087e-01,4.599831184775938220e-01,3.979435236341314353e-01,3.359039287906698812e-01,3.208256599140576482e-01,3.227056476365868232e-01,3.245856353591159982e-01,3.256982811540823364e-01,3.087783916513198723e-01,2.918585021485576303e-01,2.749386126457951662e-01,2.619321669736034974e-01,2.562922038060160279e-01,2.506522406384285029e-01,2.450122774708410334e-01,2.332335788827503698e-01,2.181936771025170807e-01,2.031537753222837639e-01,1.881138735420504748e-01,1.784837323511357376e-01,1.690837937384899181e-01,1.596838551258441263e-01,1.487875997544508000e-01,1.337476979742175109e-01,1.187077961939841941e-01,1.036678944137509051e-01,9.937077961939838611e-02,1.031307550644567084e-01,1.068907305095149751e-01,1.106507059545732974e-01,1.028621853898098043e-01,9.346224677716399865e-02,8.406230816451817911e-02,8.053253529772853858e-02,1.030923879680781946e-01,1.256522406384281421e-01,1.482120933087781034e-01,1.689303253529770565e-01,1.877302025782686956e-01,2.065300798035603069e-01,2.253299570288519460e-01,2.531077348066293475e-01,2.831875383670963142e-01,3.132673419275625593e-01,3.423879680785753554e-01,3.630678330263963915e-01,3.837476979742169281e-01,4.044275629220379642e-01,4.135972989564151159e-01,4.060773480662983603e-01,3.985573971761818268e-01,3.910374462860652378e-01,3.862031921424187164e-01,3.824432166973604219e-01,3.786832412523020164e-01,3.748465316144875548e-01,3.673265807243707992e-01,3.598066298342542102e-01,3.522866789441376767e-01,3.496777163904234986e-01,3.571976672805400876e-01,3.647176181706568432e-01,3.722375690607733767e-01,3.726212400245550449e-01,3.688612645794966394e-01,3.651012891344384004e-01,3.613413136893799948e-01,3.717004297114792077e-01,3.829803560466543688e-01,3.942602823818291968e-01,4.013965623081646727e-01,3.957565991405770922e-01,3.901166359729896782e-01,3.844766728054020977e-01,3.850521792510741559e-01,3.906921424186617364e-01,3.963321055862491504e-01,4.019720687538365644e-01,4.011663597298956718e-01,3.992863720073664968e-01,3.974063842848373218e-01,3.970610804174338759e-01,4.045810313075506315e-01,4.121009821976671650e-01,4.196209330877836985e-01,4.209637814610190931e-01,4.153238182934316791e-01,4.096838551258440986e-01,4.040438919582566846e-01,4.056936771025168031e-01,4.094536525475751532e-01,4.132136279926334477e-01,4.160527931246164046e-01,4.085328422344998711e-01,4.010128913443831156e-01,3.934929404542665266e-01,3.910758133824430716e-01,3.967157765500306521e-01,4.023557397176180106e-01,4.079957028852055911e-01,3.966774094536528739e-01,3.778775322283610127e-01,3.590776550030696512e-01,3.402777777777777901e-01
4.210526315789473450e-01,4.317388775806920154e-01,4.424251235824367412e-01,4.531113695841814115e-01,4.588906658912474401e-01,4.535475428903750772e-01,4.482044198895027698e-01,4.428612968886304069e-01,4.440607734806629736e-01,4.494038964815353365e-01,4.547470194824076439e-01,4.600901424832800068e-01,4.588906658912474401e-01,4.571096248909566895e-01,4.553285838906658833e-01,4.555466705437627439e-01,4.626708345449258575e-01,4.697949985460889710e-01,4.769191625472520846e-01,4.774280314044780371e-01,4.720849084036056742e-01,4.667417854027333668e-01,4.613986624018610039e-01,4.635068333817969899e-01,4.670689153823785467e-01,4.706309973829601034e-01,4.726664728118639136e-01,4.655423088107008001e-01,4.584181448095376865e-01,4.512939808083745175e-01,4.497673742366967153e-01,4.551104972375690227e-01,4.604536202384413857e-01,4.657967432393137486e-01,4.536565862169236185e-01,4.358461762140157791e-01,4.180357662111079398e-01,4.000072695551034063e-01,3.786347775516139547e-01,3.572622855481245030e-01,3.358897935446351068e-01,3.171343413783077048e-01,3.028860133759814222e-01,2.886376853736551396e-01,2.743893573713289680e-01,2.913274207618492539e-01,3.233861587670833759e-01,3.554448967723173314e-01,3.875036347775514534e-01,4.247964524571095080e-01,4.621983134632157708e-01,4.996001744693222557e-01,5.268246583309100783e-01,5.286056993312009400e-01,5.303867403314916906e-01,5.321677813317825523e-01,5.350029078220412959e-01,5.385649898226227972e-01,5.421270718232044095e-01,5.456891538237859107e-01,5.156658912474556544e-01,4.818261122419311704e-01,4.479863332364062423e-01,3.977900552486196561e-01,2.838034312300093953e-01,1.698168072113991345e-01,5.583018319278881814e-02,1.299432974701948129e-01,3.846321605117737907e-01,6.393210235533561825e-01,8.940098865949385187e-01,9.538746728700202571e-01,9.699040418726373458e-01,9.859334108752544346e-01,9.849520209363202827e-01,8.620601919162560467e-01,7.391683628961918107e-01,6.162765338761275746e-01,5.307865658621694349e-01,4.951657458563537006e-01,4.595449258505379664e-01,4.239241058447227317e-01,4.040055248618786288e-01,3.897571968595523462e-01,3.755088688572260636e-01,3.617694097121256225e-01,3.599883687118348718e-01,3.582073277115440657e-01,3.564262867112533151e-01,3.490840360569934520e-01,3.312736260540856126e-01,3.134632160511777732e-01,2.956528060482699338e-01,2.894736842105263275e-01,2.894736842105263275e-01,2.894736842105263275e-01,2.894736842105263275e-01,2.809319569642338421e-01,2.720267519627799224e-01,2.631215469613260027e-01,2.504361733061939987e-01,2.272826403024137965e-01,2.041291072986335664e-01,1.809755742948533364e-01,1.741058447223029770e-01,1.794489677231753122e-01,1.847920907240476196e-01,1.901352137249199825e-01,1.923524280314044543e-01,1.941334690316952605e-01,1.959145100319860389e-01,1.999854608897934649e-01,2.142337888921195532e-01,2.284821168944458358e-01,2.427304448967721462e-01,2.578511195114857046e-01,2.738804885141027934e-01,2.899098575167198821e-01,3.059392265193369709e-01,3.318915382378593848e-01,3.603881942425123386e-01,3.888848502471645152e-01,4.150189008432682569e-01,4.203620238441407309e-01,4.257051468450129827e-01,4.310482698458854012e-01,4.371183483570804662e-01,4.442425123582436908e-01,4.513666763594066933e-01,4.584908403605697513e-01,4.503489386449550103e-01,4.361006106426289497e-01,4.218522826403024450e-01,4.079674323931374857e-01,4.115295143937190980e-01,4.150915963943005993e-01,4.186536783948821561e-01,4.181448095376563145e-01,4.092396045362025059e-01,4.003343995347484752e-01,3.914291945332946665e-01,3.949185809828435478e-01,4.056048269845884402e-01,4.162910729863329995e-01,4.269773189880778363e-01,4.259595812736260978e-01,4.241785402733352361e-01,4.223974992730444855e-01,4.227973248037217857e-01,4.299214888048850658e-01,4.370456528060481238e-01,4.441698168072113484e-01,4.454056411747601696e-01,4.418435591741785573e-01,4.382814771735970560e-01,4.347193951730154993e-01,4.403169526025006442e-01,4.474411166036637022e-01,4.545652806048269268e-01,4.622710090142481132e-01,4.729572550159930056e-01,4.836435010177375649e-01,4.943297470194821797e-01,4.966560046525153038e-01,4.895318406513522458e-01,4.824076766501890212e-01,4.752835126490259632e-01,4.750654259959289916e-01,4.768464669962197977e-01,4.786275079965105483e-01,4.796815934864787079e-01,4.725574294853156498e-01,4.654332654841524253e-01,4.583091014829893672e-01,4.567097993602790007e-01,4.638339633614422253e-01,4.709581273626052278e-01,4.780822913637684524e-01,4.777915091596394714e-01,4.742294271590578592e-01,4.706673451584763579e-01,4.671052631578947456e-01
