2.469135802469135665e-02,2.203123934247322793e-02,1.937112066025509921e-02,1.671100197803696702e-02,1.405088329581883830e-02,1.903007980356046652e-02,3.765091057908737104e-02,5.627174135461428250e-02,7.489257213014119396e-02,9.351340290566809155e-02,8.539663051633585023e-02,6.677579974080893876e-02,4.815496896528203424e-02,2.953413818975512972e-02,1.357342609644635913e-02,2.953413818975513666e-02,4.549485028306391593e-02,6.145556237637269520e-02,7.741627446968146753e-02,7.830298069708749309e-02,5.968214992156059551e-02,4.106131914603368405e-02,2.244048837050677259e-02,3.819657594979875004e-03,1.057226655753359945e-02,2.387285996862424653e-02,3.717345337971489361e-02,5.047404679080554069e-02,6.172839506172839164e-02,6.172839506172839164e-02,6.172839506172839164e-02,6.172839506172839164e-02,6.172839506172839164e-02,6.036423163494986088e-02,5.770411295273172869e-02,5.504399427051360344e-02,5.238387558829547125e-02,4.972375690607734600e-02,4.938271604938271331e-02,4.938271604938271331e-02,4.938271604938271331e-02,4.938271604938271331e-02,5.061046313348339237e-02,5.593070049791967757e-02,6.125093786235591420e-02,6.657117522679215083e-02,7.189141259122842909e-02,6.779892231089278132e-02,5.715844758202030806e-02,4.651797285314783481e-02,3.587749812427527135e-02,2.523702339540271483e-02,2.973876270377191766e-02,3.505900006820815429e-02,4.037923743264443255e-02,4.569947479708071775e-02,4.610872382511423118e-02,3.546824909624175792e-02,2.482777436736919446e-02,1.418729963849663100e-02,3.546824909624157751e-03,3.546824909624158185e-03,8.867062274060439481e-03,1.418729963849672121e-02,1.950753700293295784e-02,2.496419071004703574e-02,3.560466543891959573e-02,4.624514016779215919e-02,5.688561489666463244e-02,6.752608962553710570e-02,7.305095150399017190e-02,7.039083282177202583e-02,6.773071413955390752e-02,6.507059545733578920e-02,6.241047677511765007e-02,5.777232112407063025e-02,5.245208375963439362e-02,4.713184639519815700e-02,4.181160903076183016e-02,3.812836777845991787e-02,4.876884250733239112e-02,5.940931723620487132e-02,7.004979196507735151e-02,8.069026669394999129e-02,8.396425891821839016e-02,7.864402155378215353e-02,7.332378418934581976e-02,6.800354682490958314e-02,6.268330946047334651e-02,2.276106677579969595e-01,4.297796876065739791e-01,6.319487074551544126e-01,8.341177273037314599e-01,9.622808812495741160e-01,7.521315053543392581e-01,5.419821294591078420e-01,3.318327535638765369e-01,1.216833776686451207e-01,3.758270240774830295e-02,6.152377054771176329e-02,8.546483868767483505e-02,1.094059068276378999e-01,1.333469749676013671e-01,1.190914671577653766e-01,1.004706363822385484e-01,8.184980560671170635e-02,6.322897483118487816e-02,5.074687947616127875e-02,5.606711684059751538e-02,6.138735420503375201e-02,6.670759156947007884e-02,7.202782893390631547e-02,7.243707796193983584e-02,6.977695927972171752e-02,6.711684059750358533e-02,6.445672191528542538e-02,6.179660323306730707e-02,5.136075301821159400e-02,4.072027828933894034e-02,3.007980356046646708e-02,1.943932883159399383e-02,1.677921014937587552e-02,3.007980356046647055e-02,4.338039697155728069e-02,5.668099038264787226e-02,6.998158379373847771e-02,7.775731532637615573e-02,8.307755269081239236e-02,8.839779005524862898e-02,9.371802741968486561e-02,9.862901575608758187e-02,9.596889707386942192e-02,9.330877839165130361e-02,9.064865970943318529e-02,8.798854102721502535e-02,8.641975308641974829e-02,8.641975308641974829e-02,8.641975308641974829e-02,8.641975308641974829e-02,8.641975308641974829e-02,8.028101766591634603e-02,7.230066161926199109e-02,6.432030557260751125e-02,5.633994952595314243e-02,4.972375690607735294e-02,5.238387558829547125e-02,5.504399427051358956e-02,5.770411295273175645e-02,6.036423163494987476e-02,5.913648455084918876e-02,5.381624718641286886e-02,4.849600982197671550e-02,4.317577245754039561e-02,3.785553509310406878e-02,3.703703703703703498e-02,3.703703703703703498e-02,3.703703703703703498e-02,3.703703703703703498e-02,4.031102926130569059e-02,5.627174135461414373e-02,7.223245344792311728e-02,8.819316554123209084e-02,1.041538776345405370e-01,1.081099515721982984e-01,1.027897142077621451e-01,9.746947684332582518e-02,9.214923947888950528e-02,8.682900211445335192e-02,9.378623559102383656e-02,1.017665916376783164e-01,1.097469476843325464e-01,1.177273037309870263e-01,1.167041811609025870e-01,9.276311302093991074e-02,6.882204488097644346e-02,4.488097674101376722e-02,2.093990860105031382e-02,2.257690471318490183e-02,3.853761680649334803e-02,5.449832889980232159e-02,7.045904099311077473e-02,8.641975308641974829e-02
5.681818181818181629e-02,6.661225514816675186e-02,7.640632847815168049e-02,8.620040180813662301e-02,9.599447513812155164e-02,9.699899547965847024e-02,8.230788548468107035e-02,6.761677548970365659e-02,5.292566549472626364e-02,3.823455549974887069e-02,3.584881968859869594e-02,3.829733802109492463e-02,4.074585635359116026e-02,4.319437468608739589e-02,4.677297840281266494e-02,6.391260673028628658e-02,8.105223505775993598e-02,9.819186338523355762e-02,1.153314917127071931e-01,1.217980914113510754e-01,1.144525364138623824e-01,1.071069814163736755e-01,9.976142641888498253e-02,9.241587142139628952e-02,9.285534907081868794e-02,9.530386740331492357e-02,9.775238573581115920e-02,1.002009040683073948e-01,1.007659467604219011e-01,9.097187343043695862e-02,8.117780010045202999e-02,7.138372677046708747e-02,6.158965344048215884e-02,6.058513309894525412e-02,6.793068809643396100e-02,7.527624309392265400e-02,8.262179809141136089e-02,8.996735308890005389e-02,9.090909090909091161e-02,9.090909090909091161e-02,9.090909090909091161e-02,9.090909090909091161e-02,9.034404821697639143e-02,8.789552988448015580e-02,8.544701155198392017e-02,8.299849321948769842e-02,8.054997488699146280e-02,8.532144650929186780e-02,9.511551983927675480e-02,1.049095931692616557e-01,1.147036664992466259e-01,1.244977398292315962e-01,1.319688598694123693e-01,1.393144148669010207e-01,1.466599698643897554e-01,1.540055248618784900e-01,1.523103967855348739e-01,1.302737317930688643e-01,1.082370668006026881e-01,8.620040180813649811e-02,6.416373681567048848e-02,6.008287292817678094e-02,6.497990959316926607e-02,6.987694625816175120e-02,7.477398292315419470e-02,7.979658463083874609e-02,8.959065796082371635e-02,9.938473129080868662e-02,1.091788046207935875e-01,1.189728779507784884e-01,1.240582621798091423e-01,1.216097438473128928e-01,1.191612255148166710e-01,1.167127071823204493e-01,1.142641888498241998e-01,1.099949773982922818e-01,1.050979407332998383e-01,1.002009040683073948e-01,9.530386740331486806e-02,9.065796082370666809e-02,8.820944249121044634e-02,8.576092415871422459e-02,8.331240582621800284e-02,8.086388749372172557e-02,8.632596685082875865e-02,1.010170768458061030e-01,1.157081868407836833e-01,1.303992968357610138e-01,1.450904068307383721e-01,2.984053239578097760e-01,4.820441988950264767e-01,6.656830738322462304e-01,8.493219487694629866e-01,9.639628327473634961e-01,7.631843294826698987e-01,5.624058262179796319e-01,3.616273229532893652e-01,1.608488196885989874e-01,6.950025113008535815e-02,7.194876946258163541e-02,7.439728779507785716e-02,7.684580612757407891e-02,7.929432446007034230e-02,9.492717227523868317e-02,1.120668006027122354e-01,1.292064289301858016e-01,1.463460572576593677e-01,1.503013561024608424e-01,1.160220994475137241e-01,8.174284279256660568e-02,4.746358613761891831e-02,1.318432948267178606e-02,9.040683073832281313e-03,2.373179306880961875e-02,3.842290306378695619e-02,5.311401305876453649e-02,6.780512305374186699e-02,6.341034655951782728e-02,5.851330989452530745e-02,5.361627322953286395e-02,4.871923656454042045e-02,4.627071823204419870e-02,4.871923656454042045e-02,5.116775489703668384e-02,5.361627322953290559e-02,5.606479156202912734e-02,5.851330989452539072e-02,6.096182822702161247e-02,6.341034655951782728e-02,6.585886489201406291e-02,6.793068809643397488e-02,6.303365143144144811e-02,5.813661476644900461e-02,5.323957810145656111e-02,4.834254143646403434e-02,4.645906579608238829e-02,4.890758412857861004e-02,5.135610246107483179e-02,5.380462079357105354e-02,5.625313912606731692e-02,6.811903566047217140e-02,8.281014565544950190e-02,9.750125565042708220e-02,1.121923656454044127e-01,1.250000000000000000e-01,1.250000000000000000e-01,1.250000000000000000e-01,1.250000000000000000e-01,1.250000000000000000e-01,1.178427925665494896e-01,1.031516825715719093e-01,8.846057257659481476e-02,7.376946258161723446e-02,5.907835258663965416e-02,6.096182822702157084e-02,6.585886489201410454e-02,7.075590155700663131e-02,7.565293822199899154e-02,8.054997488699151831e-02,8.544701155198389242e-02,9.034404821697641919e-02,9.524108488196894595e-02,1.001381215469613062e-01,1.105600200904069547e-01,1.252511300853840492e-01,1.399422400803616018e-01,1.546333500753391821e-01,1.693244600703162905e-01,1.636740331491712275e-01,1.563284781516824373e-01,1.489829231541938970e-01,1.416373681567051068e-01,1.329105976896029495e-01,1.206680060271220489e-01,1.084254143646407320e-01,9.618282270215981755e-02,8.394023103967850064e-02,7.483676544450013068e-02,6.749121044701157646e-02,6.014565544952279325e-02,5.280010045203424596e-02,4.545454545454545581e-02
9.523809523809523281e-02,8.497763746382530625e-02,7.471717968955537970e-02,6.445672191528545314e-02,5.419626414101551964e-02,4.761904761904761640e-02,4.761904761904761640e-02,4.761904761904761640e-02,4.761904761904761640e-02,4.761904761904761640e-02,5.498553012365166998e-02,6.524598789792160347e-02,7.550644567219153003e-02,8.576690344646145658e-02,9.563272822941330797e-02,1.007629571165482713e-01,1.058931860036832345e-01,1.110234148908181978e-01,1.161536437779531611e-01,1.101026045777426798e-01,8.958168902920282672e-02,6.906077348066297361e-02,4.853985793212310662e-02,2.801894238358325351e-02,3.400420941857406482e-02,4.682978163641147995e-02,5.965535385424888815e-02,7.248092607208629634e-02,8.175480136806102804e-02,7.149434359379110149e-02,6.123388581952116799e-02,5.097342804525124144e-02,4.071297027098130794e-02,3.571428571428571230e-02,3.571428571428571230e-02,3.571428571428571230e-02,3.571428571428571230e-02,3.571428571428571230e-02,4.242304656669297624e-02,5.011838989739545586e-02,5.781373322809787302e-02,6.550907655880028324e-02,7.261247040252565010e-02,7.774269928966064114e-02,8.287292817679557666e-02,8.800315706393052606e-02,9.313338595106551709e-02,9.675085503814787047e-02,9.931596948171533823e-02,1.018810839252828060e-01,1.044461983688503015e-01,1.070113128124177970e-01,1.095764272559852648e-01,1.121415416995527325e-01,1.147066561431202281e-01,1.172717705866877236e-01,1.182583530649828907e-01,1.156932386214154229e-01,1.131281241778479274e-01,1.105630097342804319e-01,1.079978952907129641e-01,1.020126282557221875e-01,9.431728492501971484e-02,8.662194159431724216e-02,7.892659826361482500e-02,7.136279926335174773e-02,6.879768481978426609e-02,6.623257037621677057e-02,6.366745593264928893e-02,6.110234148908182117e-02,6.248355695869509119e-02,7.017890028939756386e-02,7.787424362009998102e-02,8.556958695080239818e-02,9.326493028150487086e-02,8.570113128124169644e-02,7.287555906340434375e-02,6.004998684556698413e-02,4.722441462772941634e-02,3.650355169692190427e-02,4.419889502762432143e-02,5.189423835832673859e-02,5.958958168902914881e-02,6.728492501973168394e-02,7.142857142857142461e-02,7.142857142857142461e-02,7.142857142857142461e-02,7.142857142857142461e-02,7.142857142857142461e-02,2.355958958168898609e-01,4.356748224151526516e-01,6.357537490134187452e-01,8.358326756116815082e-01,9.663904235727444059e-01,7.791370691923158454e-01,5.918837148118903935e-01,4.046303604314649416e-01,2.173770060510394897e-01,1.254275190739279899e-01,1.151670612996579246e-01,1.049066035253880258e-01,9.464614575111814088e-02,8.438568797684808942e-02,7.642725598526697861e-02,6.873191265456456145e-02,6.103656932386215123e-02,5.334122599315974100e-02,4.696132596685080596e-02,4.439621152328333820e-02,4.183109707971586350e-02,3.926598263614835410e-02,3.670086819258087940e-02,4.360694554064722950e-02,5.643251775848458218e-02,6.925808997632193487e-02,8.208366219415952347e-02,9.490923441199686228e-02,9.023941068139963717e-02,8.510918179426460450e-02,7.997895290712966898e-02,7.484872401999471958e-02,7.228360957642725182e-02,7.484872401999471958e-02,7.741383846356222898e-02,7.997895290712971061e-02,8.254406735069717838e-02,7.800578795053923764e-02,7.031044461983682048e-02,6.261510128913441720e-02,5.491975795843200003e-02,4.814522494080499676e-02,5.840568271507504822e-02,6.866614048934494008e-02,7.892659826361482500e-02,8.918705603788487646e-02,8.787161273349104740e-02,6.991581162851875919e-02,5.196001052354645017e-02,3.400420941857414808e-02,1.604840831360154763e-02,2.769008155748493502e-02,4.821099710602470834e-02,6.873191265456482513e-02,8.925282820310459497e-02,1.041831097079715107e-01,8.109707971586425923e-02,5.801104972375701468e-02,3.492501973164939544e-02,1.183898973954214395e-02,4.998684556695598240e-03,1.525914233096565403e-02,2.551960010523537242e-02,3.578005787950542388e-02,4.604051565377548227e-02,5.413049197579580113e-02,6.182583530649834319e-02,6.952117863720089219e-02,7.721652196790317058e-02,8.175480136806094478e-02,7.405945803735865252e-02,6.636411470665611045e-02,5.866877137595356839e-02,5.097342804525128307e-02,5.774796106287832798e-02,7.570376216785033863e-02,9.365956327282293215e-02,1.116153643777955395e-01,1.295711654827675363e-01,1.096421994212048584e-01,8.655616942909723222e-02,6.347013943699036931e-02,4.038410944488274312e-02,2.380952380952380820e-02,2.380952380952380820e-02,2.380952380952380820e-02,2.380952380952380820e-02,2.380952380952380820e-02,3.038674033149187798e-02,4.064719810576159637e-02,5.090765588003165476e-02,6.116811365430136621e-02,7.142857142857142461e-02
1.034482758620689641e-01,9.354162697656696890e-02,8.363497809106495984e-02,7.372832920556296465e-02,6.382168032006096947e-02,5.747126436781609116e-02,5.747126436781609116e-02,5.747126436781609116e-02,5.747126436781609116e-02,5.747126436781609116e-02,6.280561376770178728e-02,7.023560043182829060e-02,7.766558709595478005e-02,8.509557376008128338e-02,9.233504794564044438e-02,9.728837238839144197e-02,1.022416968311424396e-01,1.071950212738934372e-01,1.121483457166444486e-01,1.095446751762240295e-01,9.716136406934652858e-02,8.477805296246904154e-02,7.239474185559152675e-02,6.001143074871403277e-02,5.353400647742426882e-02,4.858068203467326429e-02,4.362735759192226670e-02,3.867403314917126911e-02,3.753095827776720822e-02,5.734425604877120553e-02,7.715755381977520977e-02,9.697085159077922789e-02,1.167841493617832183e-01,1.226265320378484847e-01,1.151965453737219813e-01,1.077665587095954780e-01,1.003365720454689747e-01,9.290658538134247135e-02,8.331745729345271800e-02,7.341080840795066731e-02,6.350415952244871376e-02,5.359751063694675327e-02,4.597701149425287293e-02,4.597701149425287293e-02,4.597701149425287293e-02,4.597701149425287293e-02,4.597701149425287293e-02,4.743760716326920340e-02,4.991426938464469526e-02,5.239093160602018712e-02,5.486759382739569979e-02,5.734425604877120553e-02,5.747126436781609116e-02,5.747126436781609116e-02,5.747126436781609116e-02,5.747126436781609116e-02,5.670921445354670104e-02,5.423255223217121612e-02,5.175589001079570345e-02,4.927922778942019078e-02,4.680256556804469892e-02,5.918587667492215126e-02,7.899917444592623184e-02,9.881247221693031935e-02,1.186257699879342403e-01,1.375500095256239619e-01,1.226900361973708997e-01,1.078300628691178376e-01,9.297008954086490029e-02,7.811011621261196303e-02,6.706039245570584451e-02,6.210706801295481916e-02,5.715374357020383544e-02,5.220041912745285867e-02,4.724709468470184026e-02,4.597701149425287293e-02,4.597701149425287293e-02,4.597701149425287293e-02,4.597701149425287293e-02,4.750111132279172949e-02,6.236108465104467369e-02,7.722105797929761095e-02,9.208103130755054821e-02,1.069410046358037353e-01,1.092271543786117738e-01,9.684384327173432838e-02,8.446053216485667481e-02,7.207722105797922940e-02,5.969390995110177012e-02,2.241061789547211247e-01,4.271924811075112349e-01,6.302787832603048424e-01,8.333650854130949526e-01,9.631040833174576710e-01,7.575411189432885717e-01,5.519781545691229141e-01,3.464151901949572565e-01,1.408522258207915989e-01,5.664571029402414026e-02,7.645900806502838043e-02,9.627230583603230141e-02,1.160856036070362224e-01,1.358989013780404487e-01,1.268178065663300158e-01,1.144344954594525565e-01,1.020511843525751111e-01,8.966787324569766571e-02,7.918968692449351865e-02,7.423636248174253494e-02,6.928303803899156510e-02,6.432971359624049812e-02,5.937638915348952134e-02,5.899536419635486445e-02,6.147202641773035631e-02,6.394868863910584122e-02,6.642535086048137472e-02,6.890201308185686657e-02,5.689972693211407112e-02,4.451641582523641755e-02,3.213310471835896520e-02,1.974979361148151979e-02,1.644757731631419848e-02,3.130755064456713921e-02,4.616752397282031933e-02,6.102749730107326354e-02,7.588747062932620080e-02,8.217438242204866405e-02,8.465104464342415591e-02,8.712770686479964777e-02,8.960436908617513962e-02,9.233504794564040274e-02,9.976503460976698934e-02,1.071950212738934649e-01,1.146250079380199405e-01,1.220549946021465271e-01,1.233885819521178262e-01,1.159585952879913506e-01,1.085286086238648751e-01,1.010986219597383995e-01,9.366863529561181290e-02,7.671302470311798516e-02,5.689972693211407112e-02,3.708642916110982402e-02,1.727313139010590304e-02,2.540166380898013603e-03,2.235346415190193198e-02,4.216676192290585296e-02,6.198005969391010006e-02,8.179335746491402104e-02,9.316060201943227037e-02,9.563726424080780386e-02,9.811392646218325408e-02,1.005905886835587737e-01,1.030672509049343072e-01,1.013526385978281708e-01,9.887597637645263726e-02,9.639931415507710377e-02,9.392265193370165355e-02,9.297008954086498356e-02,9.792341398361588400e-02,1.028767384263669371e-01,1.078300628691180041e-01,1.127833873118689045e-01,1.079570711881627232e-01,9.557376008128548595e-02,8.319044897440783237e-02,7.080713786753017880e-02,5.842382676065292768e-02,5.289896488219976434e-02,4.794564043944870430e-02,4.299231599669780385e-02,3.803899155394674381e-02,3.587985013018362562e-02,4.083317457293452607e-02,4.578649901568558611e-02,5.073982345843648656e-02,5.569314790118754660e-02,5.270845240363231793e-02,4.527846573950596726e-02,3.784847907537937373e-02,3.041849241125302999e-02,2.298850574712643646e-02
