3.043478260869565410e-01,2.606293538313716462e-01,2.169108815757866959e-01,1.731924093202017734e-01,1.294739370646168786e-01,1.294739370646168786e-01,2.075426375210185082e-01,2.856113379774201100e-01,3.636800384338217951e-01,4.417487388902234247e-01,4.637681159420289911e-01,4.637681159420289911e-01,4.637681159420289911e-01,4.637681159420289911e-01,4.589638882216350302e-01,3.965089278565137043e-01,3.340539674913923784e-01,2.715990071262710526e-01,2.091440467611497822e-01,2.174713748098326960e-01,3.173993113940267730e-01,4.173272479782208499e-01,5.172551845624149269e-01,6.171831211466090039e-01,5.656978140763870844e-01,4.751381215469612229e-01,3.845784290175353615e-01,2.940187364881094445e-01,2.231563776122988396e-01,2.606293538313716462e-01,2.981023300504443974e-01,3.355753062695172040e-01,3.730482824885900106e-01,4.057170309872688563e-01,4.338217631515733919e-01,4.619264953158779830e-01,4.900312274801825740e-01,5.181359596444872206e-01,4.863479862278805022e-01,4.457522619905514571e-01,4.051565377532228007e-01,3.645608135158940888e-01,3.376571382816878630e-01,3.563936263912243496e-01,3.751301145007606697e-01,3.938666026102969897e-01,4.126030907198334763e-01,4.497557850908802113e-01,4.997197533829770832e-01,5.496837216750738442e-01,5.996476899671712157e-01,6.496116582592683653e-01,6.314356633837776567e-01,6.095764272559853758e-01,5.877171911281927619e-01,5.658579550004002590e-01,5.372728000640563106e-01,4.935543278084715824e-01,4.498358555528864655e-01,4.061173832973014042e-01,3.623989110417166204e-01,3.374169268956682122e-01,3.218031868043878529e-01,3.061894467131074382e-01,2.905757066218271900e-01,2.760028825366321881e-01,3.009848666826808183e-01,3.259668508287294486e-01,3.509488349747778568e-01,3.759308191208262651e-01,3.828969493153975279e-01,3.610377131876049694e-01,3.391784770598126331e-01,3.173192409320202412e-01,2.954600048042276828e-01,3.270077668348149169e-01,3.769717351269117889e-01,4.269357034190086053e-01,4.768996717111062544e-01,5.217391304347825942e-01,5.217391304347825942e-01,5.217391304347825942e-01,5.217391304347825942e-01,5.217391304347825942e-01,4.885899591640642248e-01,4.167667547441750164e-01,3.449435503242846424e-01,2.731203459043954340e-01,2.012971414845062257e-01,3.318920650172147990e-01,5.067659540395537121e-01,6.816398430618955118e-01,8.565137320842346469e-01,9.730963247657942183e-01,8.232044198895012155e-01,6.733125150132106551e-01,5.234206101369200947e-01,3.735287052606296454e-01,2.774441508527507594e-01,2.274801825606530548e-01,1.775162142685562106e-01,1.275522459764593664e-01,7.758827768436168948e-02,9.768596364801043763e-02,1.257906958123149177e-01,1.538954279766193978e-01,1.820001601409238778e-01,2.061013692049004087e-01,2.185923612779246128e-01,2.310833533509488169e-01,2.435743454239732153e-01,2.560653374969974472e-01,2.762430939226520055e-01,3.012250780687004137e-01,3.262070622147488219e-01,3.511890463607976742e-01,3.761710305068460825e-01,3.524701737529025714e-01,3.274881896068537745e-01,3.025062054608053108e-01,2.775242213147569026e-01,2.712787252782448144e-01,3.025062054608053108e-01,3.337336856433663623e-01,3.649611658259269142e-01,3.961886460084874662e-01,3.971494915525661251e-01,3.846584994795418933e-01,3.721675074065177169e-01,3.596765153334934850e-01,3.468652414124430150e-01,3.281287533029064174e-01,3.093922651933700974e-01,2.906557770838337773e-01,2.719192889742971797e-01,3.044278965489638500e-01,4.106013291696696266e-01,5.167747617903754032e-01,6.229481944110812908e-01,7.291216270317888437e-01,6.287132676755540217e-01,4.663303707262392295e-01,3.039474737769218282e-01,1.415645768276071470e-01,9.208103130755299418e-03,8.103130755064449908e-02,1.528545119705337074e-01,2.246777163904241092e-01,2.965009208103133176e-01,3.576747537833292467e-01,4.076387220754269514e-01,4.576026903675229351e-01,5.075666586596205843e-01,5.575306269517182889e-01,5.123708863800147117e-01,4.499159260148926087e-01,3.874609656497705057e-01,3.250060052846505121e-01,2.670349907918964094e-01,2.264392665545683636e-01,1.858435423172390411e-01,1.452478180799096630e-01,1.046520938425816449e-01,9.224117223156384771e-02,1.016094162863318551e-01,1.109776603411001539e-01,1.203459043958684804e-01,1.297141484506364739e-01,2.082632716790779048e-01,2.925774681719927051e-01,3.768916646649047575e-01,4.612058611578194744e-01,5.085275042036982995e-01,4.616862839298582766e-01,4.148450636560166993e-01,3.680038433821767319e-01,3.211626231083351546e-01,2.803266874849861812e-01,2.428537112659141795e-01,2.053807350468409010e-01,1.679077588277688993e-01,1.304347826086956486e-01
1.382978723404255372e-01,1.543434818384859519e-01,1.703890913365463944e-01,1.864347008346067813e-01,2.024803103326672238e-01,2.152345127542024117e-01,2.221112025390854505e-01,2.289878923239684894e-01,2.358645821088515282e-01,2.427412718937345670e-01,2.726578112142941102e-01,3.116257199952979784e-01,3.505936287763018466e-01,3.895615375573057704e-01,4.242976372399200891e-01,4.082520277418596466e-01,3.922064182437992041e-01,3.761608087457388172e-01,3.601151992476783747e-01,3.470671211943105461e-01,3.378982014811331980e-01,3.287292817679557944e-01,3.195603620547784463e-01,3.103914423416010426e-01,2.975784647936993155e-01,2.838250852239332378e-01,2.700717056541671601e-01,2.563183260844010825e-01,2.482073586458211079e-01,2.711296579287645336e-01,2.940519572117080149e-01,3.169742564946514962e-01,3.398965557775949220e-01,3.252027741859644938e-01,2.747737157634888572e-01,2.243446573410132483e-01,1.739155989185376394e-01,1.234865404960620305e-01,1.250146937815916348e-01,1.341836134947690662e-01,1.433525332079464143e-01,1.525214529211237624e-01,1.611613964970024793e-01,1.680380862818855459e-01,1.749147760667685569e-01,1.817914658516515680e-01,1.886681556365346346e-01,1.874338779828376156e-01,1.805571881979546323e-01,1.736804984130716212e-01,1.668038086281885546e-01,1.599271188433054880e-01,1.421770306806159345e-01,1.238391912542612522e-01,1.055013518279064033e-01,8.716351240155156832e-02,8.857411543434824674e-02,1.344187140002349734e-01,1.802633125661221025e-01,2.261079111320092039e-01,2.719525096978959722e-01,2.918185024097801894e-01,2.986951921946632282e-01,3.055718819795463226e-01,3.124485717644293059e-01,3.186199600329141512e-01,2.979898906782649237e-01,2.773598213236157517e-01,2.567297519689666907e-01,2.360996826143176852e-01,2.163512401551662967e-01,1.980134007288114617e-01,1.796755613024567655e-01,1.613377218761020693e-01,1.429998824497472343e-01,1.434113083343129535e-01,1.502879981191959646e-01,1.571646879040789757e-01,1.640413776889620978e-01,1.723286705066417179e-01,1.929587398612907234e-01,2.135888092159397567e-01,2.342188785705887899e-01,2.548489479252381562e-01,2.754790172798872172e-01,2.961090866345362227e-01,3.167391559891856168e-01,3.373692253438346222e-01,3.579992946984836832e-01,4.745503702832958304e-01,6.120841659809560520e-01,7.496179616786184940e-01,8.871517573762786046e-01,9.823086869636771246e-01,8.837428000470191058e-01,7.851769131303625304e-01,6.866110262137061770e-01,5.880451392970496016e-01,4.796050311508176511e-01,3.627013048078045476e-01,2.457975784647933870e-01,1.288938521217822819e-01,1.199012577876923391e-02,7.405665922181786653e-02,1.565769366404139717e-01,2.390972140590100770e-01,3.216174914776062099e-01,3.723992006582811376e-01,3.311390619489830711e-01,2.898789232396850046e-01,2.486187845303862998e-01,2.073586458210882333e-01,2.084165980956859676e-01,2.359233572352180119e-01,2.634301163747500563e-01,2.909368755142825447e-01,3.184436346538145890e-01,2.945809333490067572e-01,2.693664041377686336e-01,2.441518749265308985e-01,2.189373457152932190e-01,1.975431997178793975e-01,1.837898201481133753e-01,1.700364405783471589e-01,1.562830610085811367e-01,1.425296814388151145e-01,1.335370871047372177e-01,1.266603973198541788e-01,1.197837075349711816e-01,1.129070177500881705e-01,1.077935817562006293e-01,1.353003408957331177e-01,1.628071000352651621e-01,1.903138591747972064e-01,2.178206183143296948e-01,2.274597390384388296e-01,2.114141295403784704e-01,1.953685200423181112e-01,1.793229105442577520e-01,1.632773010461971430e-01,1.824967673680499280e-01,2.122957564358763094e-01,2.420947455037031903e-01,2.718937345715295439e-01,2.966968378982014487e-01,2.875279181850241006e-01,2.783589984718467525e-01,2.691900787586692378e-01,2.600211590454918897e-01,2.575526037380980182e-01,2.621370635946867478e-01,2.667215234512753663e-01,2.713059833078641514e-01,2.758904431644528810e-01,2.746561655107558897e-01,2.723639355824614694e-01,2.700717056541671046e-01,2.677794757258727953e-01,2.612554366991886035e-01,2.383331374162456495e-01,2.154108381333019184e-01,1.924885388503581596e-01,1.695662395674151779e-01,1.828494181262493024e-01,2.241095568355466749e-01,2.653696955448454076e-01,3.066298342541441402e-01,3.478899729634414850e-01,3.256729751968965858e-01,2.981662160573640974e-01,2.706594569178324972e-01,2.431526977783000087e-01,2.253438344892442768e-01,2.322205242741271769e-01,2.390972140590102990e-01,2.459739038438931991e-01,2.528505936287763212e-01,2.626660397319856011e-01,2.741271893734570919e-01,2.855883390149289713e-01,2.970494886564004622e-01,3.085106382978723416e-01
2.439024390243902385e-01,2.622961864977765845e-01,2.806899339711629304e-01,2.990836814445492764e-01,3.174774289179356224e-01,3.188923325697345379e-01,2.899878722544131371e-01,2.610834119390917918e-01,2.321789516237703910e-01,2.032744913084489902e-01,2.026681040291065938e-01,2.131788168710416487e-01,2.236895297129766758e-01,2.342002425549117306e-01,2.451152135830750589e-01,2.608812828459776134e-01,2.766473521088801957e-01,2.924134213717827779e-01,3.081794906346853602e-01,3.182185689260207395e-01,3.208462471365045032e-01,3.234739253469882669e-01,3.261016035574720306e-01,3.287292817679557944e-01,3.626869694111305997e-01,4.047298207788708191e-01,4.467726721466109829e-01,4.888155235143512023e-01,5.179221129227866705e-01,4.758792615550464511e-01,4.338364101873062872e-01,3.917935588195661234e-01,3.497507074518259040e-01,3.198356016709338334e-01,3.014418541975474874e-01,2.830481067241611415e-01,2.646543592507747955e-01,2.462606117773884773e-01,2.209944751381215100e-01,1.947176930332837896e-01,1.684409109284462636e-01,1.421641288236087652e-01,1.298342541436464381e-01,1.639940708799355051e-01,1.981538876162242668e-01,2.323137043525130563e-01,2.664735210888020678e-01,2.897857431612991252e-01,3.055518124242015965e-01,3.213178816871041232e-01,3.370839509500067610e-01,3.528500202129093433e-01,2.838566230966176329e-01,2.102816332030725821e-01,1.367066433095269207e-01,6.313165341598125924e-02,3.159951489017660820e-02,9.466379194178663192e-02,1.577280689933971969e-01,2.207923460450077480e-01,2.838566230966177995e-01,2.961191214122086413e-01,2.829807303597897672e-01,2.698423393073708931e-01,2.567039482549521301e-01,2.441719444818757356e-01,2.546826573238107905e-01,2.651933701657459008e-01,2.757040830076809002e-01,2.862147958496158995e-01,3.118851906751112235e-01,3.618110766743029560e-01,4.117369626734942445e-01,4.616628486726854774e-01,5.115887346718772655e-01,4.774962942999592119e-01,4.144320172483491604e-01,3.513677401967391090e-01,2.883034631451280583e-01,2.360194043929392249e-01,2.780622557606792222e-01,3.201051071284192751e-01,3.621479584961592724e-01,4.041908098638999913e-01,4.171270718232043540e-01,3.961056461393343553e-01,3.750842204554640236e-01,3.540627947715940249e-01,3.330413690877239707e-01,4.478506939765527495e-01,5.923729955531590319e-01,7.368952971297677568e-01,8.814175987063741502e-01,9.801913488748149605e-01,8.698288640344955525e-01,7.594663791941780318e-01,6.491038943538604000e-01,5.387414095135427683e-01,4.425279611912146249e-01,3.584422584557331870e-01,2.743565557202531369e-01,1.902708529847730867e-01,1.061851502492916488e-01,1.352917396577283382e-01,1.773345910254683633e-01,2.193774423932083883e-01,2.614202937609484412e-01,3.014418541975477095e-01,3.356016709338364712e-01,3.697614876701252884e-01,4.039213044064146052e-01,4.380811211427033669e-01,4.496024794502088695e-01,4.469748012397251058e-01,4.443471230292413421e-01,4.417194448187575784e-01,4.390917666082738147e-01,4.159816736288910466e-01,3.923325697345368956e-01,3.686834658401830778e-01,3.450343619458293709e-01,3.187575798409918448e-01,2.872254413151867913e-01,2.556933027893812937e-01,2.241611642635762403e-01,1.926290257377712145e-01,2.247675515429194137e-01,2.852041503840456738e-01,3.456407492251719615e-01,4.060773480662982493e-01,4.617976014014285591e-01,4.302654628756230060e-01,3.987333243498180080e-01,3.672011858240129545e-01,3.356690472982074569e-01,3.246193235413018519e-01,3.430130710146881423e-01,3.614068184880743773e-01,3.798005659614606122e-01,3.981943134348472357e-01,3.903112788033957226e-01,3.745452095404932513e-01,3.587791402775904470e-01,3.430130710146879203e-01,3.275838835736423205e-01,3.144454925212235574e-01,3.013071014688047944e-01,2.881687104163858648e-01,2.750303193639671018e-01,2.401293626195931119e-01,1.823204419889496164e-01,1.245115213583080360e-01,6.670260072766454051e-02,8.893680097021072761e-03,3.112788033957670369e-02,6.791537528634983278e-02,1.047028702331229688e-01,1.414903651798948836e-01,1.685756636571889566e-01,1.580649508152541238e-01,1.475542379733189302e-01,1.370435251313837366e-01,1.265328122894489038e-01,1.575259399002834626e-01,2.205902169518924594e-01,2.836544940035035101e-01,3.467187710551146163e-01,4.097830481067236130e-01,3.782509095809188371e-01,3.388357364236619373e-01,2.994205632664063144e-01,2.600053901091494146e-01,2.235547769842333443e-01,1.946503166689125541e-01,1.657458563535908203e-01,1.368413960382700023e-01,1.079369357229482823e-01,1.464088397790067608e-01,2.226115078830342986e-01,2.988141759870643899e-01,3.750168440910919276e-01,4.512195121951219634e-01
1.359223300970873738e-01,1.275545781258381195e-01,1.191868261545888513e-01,1.108190741833395832e-01,1.024513222120903289e-01,1.151102290403905049e-01,1.653167408678860584e-01,2.155232526953816397e-01,2.657297645228772209e-01,3.159362763503728022e-01,3.075685243791235202e-01,2.761894544869388235e-01,2.448103845947540713e-01,2.134313147025693191e-01,1.826959180389422233e-01,1.596846001180067531e-01,1.366732821970712830e-01,1.136619642761357990e-01,9.065064635520032887e-02,1.041141447191975683e-01,1.647803465107547383e-01,2.254465483023118666e-01,2.861127500938690504e-01,3.467789518854261788e-01,3.126642707718714775e-01,2.540900069731266142e-01,1.955157431743817786e-01,1.369414793756369431e-01,8.995333369092958775e-02,1.066888376334281102e-01,1.234243415759266327e-01,1.401598455184251690e-01,1.568953494609237054e-01,1.768492195462104122e-01,1.998605374671458823e-01,2.228718553880813247e-01,2.458831733090168226e-01,2.688944912299522372e-01,2.609022153086949514e-01,2.483505873518209728e-01,2.357989593949471330e-01,2.232473314380732932e-01,2.121439682454540343e-01,2.058681542670170728e-01,1.995923402885801390e-01,1.933165263101432330e-01,1.870407123317062714e-01,1.931019685672907549e-01,2.077455345169768874e-01,2.223891004666630478e-01,2.370326664163493191e-01,2.516762323660355904e-01,2.504425253446333488e-01,2.483505873518210560e-01,2.462586493590087355e-01,2.441667113661964150e-01,2.311323284879042705e-01,1.934774446172827234e-01,1.558225607466608986e-01,1.181676768760390600e-01,8.051279300541752670e-02,7.772354234833445119e-02,9.236710829802072253e-02,1.070106742477069939e-01,1.216542401973931403e-01,1.354395751756692079e-01,1.166121332403582816e-01,9.778469130504735540e-02,7.895724936973660957e-02,6.012980743442583598e-02,4.773909778469129922e-02,4.564715979187897871e-02,4.355522179906666513e-02,4.146328380625435850e-02,3.937134581344203799e-02,5.750147508448225087e-02,8.260473099822993048e-02,1.077079869119776240e-01,1.328112428257257061e-01,1.544815748538324873e-01,1.461138228825832608e-01,1.377460709113340342e-01,1.293783189400848077e-01,1.210105669688354424e-01,1.126428149975862159e-01,1.042750630263369893e-01,9.590731105508761012e-02,8.753955908383838358e-02,7.917180711258914316e-02,2.407337874805552946e-01,4.394678967977244666e-01,6.382020061148968582e-01,8.369361154320660301e-01,9.722147723005957198e-01,8.174113608324824476e-01,6.626079493643717289e-01,5.078045378962610101e-01,3.530011264281502914e-01,2.747948291583973135e-01,2.622432012015232794e-01,2.496915732446494396e-01,2.371399452877755998e-01,2.245883173309015657e-01,1.951402671243896436e-01,1.637611972322050580e-01,1.323821273400204168e-01,1.010030574478358312e-01,9.268894491229989763e-02,1.512632087110444834e-01,2.098374725097890969e-01,2.684117363085346541e-01,3.269860001072792399e-01,3.031700906506461513e-01,2.278603229094031124e-01,1.525505551681600735e-01,7.724078742691575794e-02,1.931019685672719088e-03,1.630638845679341017e-02,3.304189239929213734e-02,4.977739634179059736e-02,6.651290028428905043e-02,9.301078152657826781e-02,1.390334173684490138e-01,1.850560532103205369e-01,2.310786890521912829e-01,2.771013248940620288e-01,2.709864292227642246e-01,2.416992973233919317e-01,2.124121654240196388e-01,1.831250335246473460e-01,1.552325269538164521e-01,1.531405889610041038e-01,1.510486509681918110e-01,1.489567129753794905e-01,1.468647749825671422e-01,1.413399131041140622e-01,1.308802231400525151e-01,1.204205331759909958e-01,1.099608432119294626e-01,9.950115324786776294e-02,1.147883924261117461e-01,1.377997103470471330e-01,1.608110282679828806e-01,1.838223461889182397e-01,2.057608753955908754e-01,2.204044413452770357e-01,2.350480072949631682e-01,2.496915732446495784e-01,2.643351391943357109e-01,2.575765702944805002e-01,2.282894383951077355e-01,1.990023064957359145e-01,1.697151745963631497e-01,1.404280426969903572e-01,1.518532425038887634e-01,1.706806844391998423e-01,1.895081263745109212e-01,2.083355683098213618e-01,2.224427399023762020e-01,2.182588639167516442e-01,2.140749879311269477e-01,2.098911119455022511e-01,2.057072359598777211e-01,2.074236979026981009e-01,2.136995118811349237e-01,2.199753258595719685e-01,2.262511398380089855e-01,2.325269538164458083e-01,2.349407284235369986e-01,2.370326664163493469e-01,2.391246044091616119e-01,2.412165424019739601e-01,2.338679397092736090e-01,2.024888698170895229e-01,1.711097999249044099e-01,1.397307300327203239e-01,1.083516601405352109e-01,1.185431529260317640e-01,1.520141608110281151e-01,1.854851686960255763e-01,2.189561765810219551e-01,2.524271844660194164e-01
1.287128712871287162e-01,1.393796838247360614e-01,1.500464963623434067e-01,1.607133088999507797e-01,1.713801214375581250e-01,1.843444012909578322e-01,2.014113013511295847e-01,2.184782014113013648e-01,2.355451014714731173e-01,2.526120015316448697e-01,2.176029757671899545e-01,1.621355505716317591e-01,1.066681253760735082e-01,5.120070018051528504e-02,2.297467315792362397e-03,3.216454242109294953e-02,6.203161752639353710e-02,9.189869263169413161e-02,1.217657677369947122e-01,1.302445161643236149e-01,1.110442535966303795e-01,9.184399102893714417e-02,7.264372846124390881e-02,5.344346589355067345e-02,5.628794923691264607e-02,6.482139926699852228e-02,7.335484929708441237e-02,8.188829932717028859e-02,9.042174935725616480e-02,9.895519938734205490e-02,1.074886494174279311e-01,1.160220994475138212e-01,1.245555494775996974e-01,1.144904545703188947e-01,8.675674197253976927e-02,5.902302937476065769e-02,3.128931677698154612e-02,3.555604179202420667e-03,6.137519829331005566e-02,1.317761610415188744e-01,2.021771237897271034e-01,2.725780865379353601e-01,3.227941578688255375e-01,3.057272578086537296e-01,2.886603577484820327e-01,2.715934576883103357e-01,2.545265576281384723e-01,2.512991630654778374e-01,2.576992505880422168e-01,2.640993381106066518e-01,2.704994256331710867e-01,2.768995131557355216e-01,2.934193971883376495e-01,3.104862972485093464e-01,3.275531973086811544e-01,3.446200973688530178e-01,3.452765166019363674e-01,3.090093539740715323e-01,2.727421913462063641e-01,2.364750287183412514e-01,2.002078660904763885e-01,1.909632952245500781e-01,1.952300202395930162e-01,1.994967452546359821e-01,2.037634702696788924e-01,2.075378808599092351e-01,1.926043433072588684e-01,1.776708057546085295e-01,1.627372682019583017e-01,1.478037306493080738e-01,1.484601498823916177e-01,1.740604999726493574e-01,1.996608500629069027e-01,2.252612001531644204e-01,2.508615502434221600e-01,2.558393960943055601e-01,2.537060335867841188e-01,2.515726710792626220e-01,2.494393085717411251e-01,2.486187845303867994e-01,2.592855970679940891e-01,2.699524096056014066e-01,2.806192221432087242e-01,2.912860346808162082e-01,2.940758164214211101e-01,2.876757288988567307e-01,2.812756413762922403e-01,2.748755538537278609e-01,2.684754663311634815e-01,3.968601280017501343e-01,5.547289535583382891e-01,7.125977791149290530e-01,8.704666046715172634e-01,9.716645697718946373e-01,8.137957442153038734e-01,6.559269186587157741e-01,4.980580931021275637e-01,3.401892675455393533e-01,2.455007931732402504e-01,2.049669055303318110e-01,1.644330178874240378e-01,1.238991302445162646e-01,8.336524260160782518e-02,1.443028280728629875e-01,2.168371533285927133e-01,2.893714785843223836e-01,3.619058038400520538e-01,4.010721514140360155e-01,3.434713637109565454e-01,2.858705760078771307e-01,2.282697883047966891e-01,1.706690006017172190e-01,1.301351129588096123e-01,1.002680378535091565e-01,7.040096274820868694e-02,4.053388764290774549e-02,1.066681253760728976e-02,2.653027733712595010e-02,4.359717739729793151e-02,6.066407745746962149e-02,7.773097751764131147e-02,1.047535692795798223e-01,1.516875444450519750e-01,1.986215196105249048e-01,2.455554947759970574e-01,2.924894699414691823e-01,2.862534872271754183e-01,2.563864121218749625e-01,2.265193370165745068e-01,1.966522619112740511e-01,1.685356380941961385e-01,1.728023631092391321e-01,1.770690881242820702e-01,1.813358131393249806e-01,1.856025381543679742e-01,1.854931349488539438e-01,1.790930474262895644e-01,1.726929599037251850e-01,1.662928723811608056e-01,1.598927848585963152e-01,1.699031781631202276e-01,1.848367157157704554e-01,1.997702532684209331e-01,2.147037908210711610e-01,2.299108363875062289e-01,2.469777364476778980e-01,2.640446365078495949e-01,2.811115365680215694e-01,2.981784366281932663e-01,3.027733712597779347e-01,2.942399212296919475e-01,2.857064711996062378e-01,2.771730211695202506e-01,2.686395711394342634e-01,2.564958153273891872e-01,2.436956402822601786e-01,2.308954652371311977e-01,2.180952901920026332e-01,2.114216946556536081e-01,2.284885947158249997e-01,2.455554947759969742e-01,2.626223948361689486e-01,2.796892948963403680e-01,2.859252776106339655e-01,2.837919151031125242e-01,2.816585525955910274e-01,2.795251900880695861e-01,2.773918275805481448e-01,2.870740112685302159e-01,2.977408238061376999e-01,3.084076363437448509e-01,3.190744488813523350e-01,3.249275203763469233e-01,3.185274328537825994e-01,3.121273453312181090e-01,3.057272578086538406e-01,2.993271702860893502e-01,2.628412012471956771e-01,2.095071385591599777e-01,1.561730758711225853e-01,1.028390131830869136e-01,4.950495049504950729e-02
2.068965517241379282e-01,2.019432272813869167e-01,1.969899028386359330e-01,1.920365783958849215e-01,1.870832539531339378e-01,1.785736965771257956e-01,1.637137232488727889e-01,1.488537499206197823e-01,1.339937765923668034e-01,1.191338032641137967e-01,1.202768781355178784e-01,1.277068647996443818e-01,1.351368514637708851e-01,1.425668381278973884e-01,1.517114370991300143e-01,1.814313837556359998e-01,2.111513304121420131e-01,2.408712770686479987e-01,2.705912237251539842e-01,2.841176097034355807e-01,2.766876230393090497e-01,2.692576363751825741e-01,2.618276497110560985e-01,2.543976630469295674e-01,2.666539658347621966e-01,2.839906013843906951e-01,3.013272369340191936e-01,3.186638724836476921e-01,3.363815329904108475e-01,3.561948307614148934e-01,3.760081285324188838e-01,3.958214263034228741e-01,4.156347240744268645e-01,4.011557757033085148e-01,3.540991934971740029e-01,3.070426112910394911e-01,2.599860290849049793e-01,2.129294468787705230e-01,2.198514002667174838e-01,2.347113735949705460e-01,2.495713469232234694e-01,2.644313202514764205e-01,2.701466946084968290e-01,2.453800723947417162e-01,2.206134501809868254e-01,1.958468279672319345e-01,1.710802057534768217e-01,1.536165618848033820e-01,1.412332507779259505e-01,1.288499396710484912e-01,1.164666285641709348e-01,1.040833174572933784e-01,1.551406617133422872e-01,2.096272305836030803e-01,2.641137994538643174e-01,3.186003683241255269e-01,3.418428907093414293e-01,2.947863085032070840e-01,2.477297262970724057e-01,2.006731440909376996e-01,1.536165618848033820e-01,1.494887915158442382e-01,1.668254270654728200e-01,1.841620626151013740e-01,2.014986981647298170e-01,2.182002921191338318e-01,2.107703054550073007e-01,2.033403187908807697e-01,1.959103321267542941e-01,1.884803454626278185e-01,1.981964818695625130e-01,2.353464151901951684e-01,2.724963485108274908e-01,3.096462818314598686e-01,3.467962151520925240e-01,3.286975296881943787e-01,2.915475963675620008e-01,2.543976630469296785e-01,2.172477297262966900e-01,1.831459960627420669e-01,1.757160093986155913e-01,1.682860227344891157e-01,1.608560360703626679e-01,1.534260494062360813e-01,1.745729345272116484e-01,2.290595033974724415e-01,2.835460722677340950e-01,3.380326411379949159e-01,3.925192100082556812e-01,5.079697720200671007e-01,6.367562075315924552e-01,7.655426430431200302e-01,8.943290785546456068e-01,9.733282530005717970e-01,8.247285197180399541e-01,6.761287864355105537e-01,5.275290531529811533e-01,3.789293198704517529e-01,2.770051438369217078e-01,2.150885883025334400e-01,1.531720327681461991e-01,9.125547723375895814e-02,2.933892169937069028e-02,9.189051882898380263e-02,1.686670476916239947e-01,2.454435765542641867e-01,3.222201054169043788e-01,3.659744713278716421e-01,3.139645646789863132e-01,2.619546580301010397e-01,2.099447513812149058e-01,1.579348447323296323e-01,1.196418365402933115e-01,8.992188988378743697e-02,6.020194322728154857e-02,3.048199657077518832e-02,7.620499142693137884e-04,7.722105797929752768e-02,1.564742490633145022e-01,2.357274401473301861e-01,3.149806312313458423e-01,3.529561186257700323e-01,3.083761986410112343e-01,2.637962786562516593e-01,2.192163586714928614e-01,1.746364386867340357e-01,1.986410109862201956e-01,2.531275798564809887e-01,3.076141487267417540e-01,3.621007175970025749e-01,4.121419953006923431e-01,3.799453864228104494e-01,3.477487775449291107e-01,3.155521686670477166e-01,2.833555597891658229e-01,2.603035498825172489e-01,2.503969009970152815e-01,2.404902521115133140e-01,2.305836032260113744e-01,2.206769543405092404e-01,2.031498063123134135e-01,1.833365085413094786e-01,1.635232107703052384e-01,1.437099129993013036e-01,1.305645519781546970e-01,1.627611608560360357e-01,1.949577697339174298e-01,2.271543786117993236e-01,2.593509874896806622e-01,2.674160157490315659e-01,2.500793801994028454e-01,2.327427446497747354e-01,2.154061091001460149e-01,1.980694735505172943e-01,2.016892106432971177e-01,2.091191973074237043e-01,2.165491839715502909e-01,2.239791706356766277e-01,2.344573569568809412e-01,2.567473169492599516e-01,2.790372769416397669e-01,3.013272369340195267e-01,3.236171969263985648e-01,3.179653267289004881e-01,2.907220422937705773e-01,2.634787578586397228e-01,2.362354734235089238e-01,2.089921889883789574e-01,2.183273004381787452e-01,2.307106115450563988e-01,2.430939226519336360e-01,2.554772337588113174e-01,2.622721788277130872e-01,2.548421921635867227e-01,2.474122054994601361e-01,2.399822188353337715e-01,2.325522321712071849e-01,2.076586016384067424e-01,1.729853305391504670e-01,1.383120594398930259e-01,1.036387883406367505e-01,6.896551724137930939e-02
1.159420289855072478e-01,1.815197373688846039e-01,2.470974457522620016e-01,3.126751541356393438e-01,3.782528625190167415e-01,4.034750580510849116e-01,3.566338377772439450e-01,3.097926175034029783e-01,2.629513972295620117e-01,2.161101769557210450e-01,2.096244695331892227e-01,2.189927135879574105e-01,2.283609576427256260e-01,2.377292016974938138e-01,2.463768115942029102e-01,2.463768115942029102e-01,2.463768115942029102e-01,2.463768115942029102e-01,2.463768115942029102e-01,2.518216030106493752e-01,2.643125950836736626e-01,2.768035871566978945e-01,2.892945792297221819e-01,3.017855713027464137e-01,3.366162222756025613e-01,3.772119465129314397e-01,4.178076707502602627e-01,4.584033949875890857e-01,4.817038994314997158e-01,4.098806950116101744e-01,3.380574905917206330e-01,2.662342861718311471e-01,1.944110817519416612e-01,1.674273360557290424e-01,1.830410761470093739e-01,1.986548162382897054e-01,2.142685563295700368e-01,2.298822964208503683e-01,2.427736408039074534e-01,2.552646328769317963e-01,2.677556249499559726e-01,2.802466170229802045e-01,2.833693650412362763e-01,2.552646328769315742e-01,2.271599007126270942e-01,1.990551685483226141e-01,1.709504363840179120e-01,1.962527023780930302e-01,2.587076627432141063e-01,3.211626231083350991e-01,3.836175834734567025e-01,4.460725438385782504e-01,4.226118984706541126e-01,3.945071663063496326e-01,3.664024341420449304e-01,3.382977019777402283e-01,3.198014252542236702e-01,3.229241732724797420e-01,3.260469212907358139e-01,3.291696693089918857e-01,3.322924173272479575e-01,3.291696693089919412e-01,3.229241732724797420e-01,3.166786772359675983e-01,3.104331811994555101e-01,3.046681079349827792e-01,3.171591000080070666e-01,3.296500920810314095e-01,3.421410841540555858e-01,3.546320762270798177e-01,3.707262390903995897e-01,3.925854752181921481e-01,4.144447113459844845e-01,4.363039474737768764e-01,4.581631836015694348e-01,4.312595083673630425e-01,3.875410361117782587e-01,3.438225638561935860e-01,3.001040916006080805e-01,2.551044919529182331e-01,1.988950276243092730e-01,1.426855632957003406e-01,8.647609896709140820e-02,3.026663463848153213e-02,4.612058611578207651e-02,1.460485226999757580e-01,2.459764592841710840e-01,3.459043958683648001e-01,4.458323324525584330e-01,5.585715429578026470e-01,6.741132196332765281e-01,7.896548963087524076e-01,9.051965729842262887e-01,9.725358315317482738e-01,8.195211786371991991e-01,6.665065257426525669e-01,5.134918728481059347e-01,3.604772199535594135e-01,3.268476259108010762e-01,3.955480823124354339e-01,4.642485387140685704e-01,5.329489951157017069e-01,6.016494515173360647e-01,5.218192008967885709e-01,4.250140123308508988e-01,3.282088237649132823e-01,2.314036351989756657e-01,1.650252221955322007e-01,1.868844583233245649e-01,2.087436944511169290e-01,2.306029305789096817e-01,2.524621667067020181e-01,2.262791256305547449e-01,1.700696613019457848e-01,1.138601969733368524e-01,5.765073264472697634e-02,1.441268316118016202e-03,8.519497157498585882e-02,1.726319160861567725e-01,2.600688605973262568e-01,3.475058051084957134e-01,3.995516054127632999e-01,3.808151173032269243e-01,3.620786291936903267e-01,3.433421410841540067e-01,3.246056529746176311e-01,3.123548722876129946e-01,3.029866282328448346e-01,2.936183841780766746e-01,2.842501401233085145e-01,2.766434462326846089e-01,3.016254303787334612e-01,3.266074145247818694e-01,3.515893986708303331e-01,3.765713828168791300e-01,3.772119465129311622e-01,3.428617183121145384e-01,3.085114901112979702e-01,2.741612619104814019e-01,2.398110337096642508e-01,2.655136520137722500e-01,3.092321242693569783e-01,3.529505965249424282e-01,3.966690687805272120e-01,4.291776763551924390e-01,3.854592040996076552e-01,3.417407318440229824e-01,2.980222595884375325e-01,2.543037873328527487e-01,2.486187845303867161e-01,2.829690127312038950e-01,3.173192409320199081e-01,3.516694691328370315e-01,3.860196973336541548e-01,3.807350468412203370e-01,3.682440547681959386e-01,3.557530626951714847e-01,3.432620706221474749e-01,3.410200976859640853e-01,3.784930739050361148e-01,4.159660501241093655e-01,4.534390263431826162e-01,4.909120025622546457e-01,4.614460725438379596e-01,3.802546240691819790e-01,2.990631755945232229e-01,2.178717271198645222e-01,1.366802786452084861e-01,1.823204419889505046e-01,2.385299063175603806e-01,2.947393706461683971e-01,3.509488349747783009e-01,3.789734966770749724e-01,3.352550244214909103e-01,2.915365521659054604e-01,2.478180799103214538e-01,2.040996076547360039e-01,1.743934662502999167e-01,1.525342301225078856e-01,1.306749939947151606e-01,1.088157578669231573e-01,8.695652173913043237e-02
5.000000000000000000e-01,4.934706177800100568e-01,4.869412355600201137e-01,4.804118533400301705e-01,4.738824711200402273e-01,4.626653273062112937e-01,4.430771806462414641e-01,4.234890339862715791e-01,4.039008873263016941e-01,3.843127406663318091e-01,3.389419052402477539e-01,2.834421563703331537e-01,2.279424075004185257e-01,1.724426586305039255e-01,1.237234220659635120e-01,1.563703331659132834e-01,1.890172442658630547e-01,2.216641553658128261e-01,2.543110664657626252e-01,2.627657793403649356e-01,2.399129415704001067e-01,2.170601038004352779e-01,1.942072660304704212e-01,1.713544282605055924e-01,1.718566884312740517e-01,1.783860706512640226e-01,1.849154528712539658e-01,1.914448350912439367e-01,2.040013393604553915e-01,2.497070149003851047e-01,2.954126904403148179e-01,3.411183659802444756e-01,3.868240415201741333e-01,3.689100954294324275e-01,2.905575087895529429e-01,2.122049221496734861e-01,1.338523355097940293e-01,5.549974886991454470e-02,8.245437803448857350e-02,1.248953624644234539e-01,1.673363468943579735e-01,2.097773313242924931e-01,2.567386572911435350e-01,3.187677883810483559e-01,3.807969194709526772e-01,4.428260505608569986e-01,5.048551816507618195e-01,4.860204252469441655e-01,4.109325297170600133e-01,3.358446341871758056e-01,2.607567386572910428e-01,1.856688431274062800e-01,1.725263686589653400e-01,1.627322953289804253e-01,1.529382219989954550e-01,1.431441486690104847e-01,1.443997990959317024e-01,1.705173279758914195e-01,1.966348568558513588e-01,2.227523857358112980e-01,2.488699146157710151e-01,2.510463753557676259e-01,2.412523020257826833e-01,2.314582286957977131e-01,2.216641553658127983e-01,2.122049221496735416e-01,2.154696132596685132e-01,2.187343043696635125e-01,2.219989954796584564e-01,2.252636865896534279e-01,2.235057759919638065e-01,2.137117026619788362e-01,2.039176293319939492e-01,1.941235560020090622e-01,1.843294826720240920e-01,2.109492717227526293e-01,2.501255650426921773e-01,2.893018583626317808e-01,3.284781516825719949e-01,3.572744014732961437e-01,2.952452703833918224e-01,2.332161392934875010e-01,1.711870082035831797e-01,1.091578771136778592e-01,7.726435626988113758e-02,8.052904737987610917e-02,8.379373848987112239e-02,8.705842959986609397e-02,9.032312070986105168e-02,2.516323455549970833e-01,4.475138121546948788e-01,6.433952787543959495e-01,8.392767453540938005e-01,9.736313410346562058e-01,8.267202410848804028e-01,6.798091411351070423e-01,5.328980411853336818e-01,3.859869412355602103e-01,3.375188347564035962e-01,3.734304369663488110e-01,4.093420391762934152e-01,4.452536413862380194e-01,4.811652435961831786e-01,4.262514649254976473e-01,3.609576427255983821e-01,2.956638205256990615e-01,2.303699983257997963e-01,1.960488866566218458e-01,2.515486355265362239e-01,3.070483843964506021e-01,3.625481332663659240e-01,4.180478821362803021e-01,4.072492884647579414e-01,3.550142307048385071e-01,3.027791729449190727e-01,2.505441151849988057e-01,1.983090574250793714e-01,1.906077348066298471e-01,1.840783525866397929e-01,1.775489703666498775e-01,1.710195881466599344e-01,1.753725096266532391e-01,2.014900385066129562e-01,2.276075673865730897e-01,2.537250962665328347e-01,2.798426251464925518e-01,3.014398124895364961e-01,3.210279591495062701e-01,3.406161058094760441e-01,3.602042524694458181e-01,3.757743177632683618e-01,3.170098777833580406e-01,2.582454378034486631e-01,1.994809978235393411e-01,1.407165578436290199e-01,1.127574083375189606e-01,1.290808638874937908e-01,1.454043194374685932e-01,1.617277749874434234e-01,1.780512305374185034e-01,1.993972877950779266e-01,2.222501255650426999e-01,2.451029633350078063e-01,2.679558011049725796e-01,2.841118365980243587e-01,2.547296166080696977e-01,2.253473966181150090e-01,1.959651766281598484e-01,1.665829566382051596e-01,1.483341704336179623e-01,1.418047882136279081e-01,1.352754059936381037e-01,1.287460237736480773e-01,1.222166415536580231e-01,1.626485853005187887e-01,2.116189519504440564e-01,2.605893186003693240e-01,3.095596852502929819e-01,3.424577264356266637e-01,3.130755064456724468e-01,2.836932864557172862e-01,2.543110664657621256e-01,2.249288464758079364e-01,1.863385233550975961e-01,1.406328478151688266e-01,9.492717227523858603e-02,4.922149673530834546e-02,3.515821195379603692e-03,2.109492717227532538e-02,4.394776494224045260e-02,6.680060271220482349e-02,8.965344048216994377e-02,1.014565544952281961e-01,8.513309894525364352e-02,6.880964339527856355e-02,5.248618784530400400e-02,3.616273229532891709e-02,5.123053741838325820e-02,8.387744851833237036e-02,1.165243596182825442e-01,1.491712707182316633e-01,1.818181818181818232e-01
3.333333333333333148e-01,3.124814352759460734e-01,2.916295372185587764e-01,2.707776391611714795e-01,2.499257411037842380e-01,2.249153448583140480e-01,1.924790589912671601e-01,1.600427731242202722e-01,1.276064872571734121e-01,9.517020139012652424e-02,9.766530030297630727e-02,1.138834432364997373e-01,1.301015861700231813e-01,1.463197291035465974e-01,1.603992158260559575e-01,1.488148280163963666e-01,1.372304402067367479e-01,1.256460523970771570e-01,1.140616645874175661e-01,1.176260916057743910e-01,1.407948672250935729e-01,1.639636428444127825e-01,1.871324184637319643e-01,2.103011940830511461e-01,2.261034871977662952e-01,2.400047525693577988e-01,2.539060179409493023e-01,2.678072833125408336e-01,2.703023822253905473e-01,2.100635656151606523e-01,1.498247490049307296e-01,8.958593239470083458e-02,2.934711578447091185e-02,4.633755123863846082e-02,1.366957761539833172e-01,2.270540010693281874e-01,3.174122259846730576e-01,4.077704509000179001e-01,3.850175250995069298e-01,3.456306065466641098e-01,3.062436879938216228e-01,2.668567694409791358e-01,2.338858195211786506e-01,2.223014317115190042e-01,2.107170439018594410e-01,1.991326560921998778e-01,1.875482682825402314e-01,2.060238816610232004e-01,2.454108002138656874e-01,2.847977187667081189e-01,3.241846373195509390e-01,3.635715558723937590e-01,3.458088278975821050e-01,3.249569298401949191e-01,3.041050317828075666e-01,2.832531337254201587e-01,2.602625794570189166e-01,2.324600487138359650e-01,2.046575179706528469e-01,1.768549872274696733e-01,1.490524564842867772e-01,1.552307966494385350e-01,1.783995722687578278e-01,2.015683478880771207e-01,2.247371235073962192e-01,2.467177567872631816e-01,2.235489811679438887e-01,2.003802055486245959e-01,1.772114299293054973e-01,1.540426543099863710e-01,1.638448286104676188e-01,2.264005227826297040e-01,2.889562169547912895e-01,3.515119111269528474e-01,4.140676052991149603e-01,3.887601734687812227e-01,3.331551119824154306e-01,2.775500504960495829e-01,2.219449890096828193e-01,1.720430107526881858e-01,1.720430107526881858e-01,1.720430107526881858e-01,1.720430107526881858e-01,1.720430107526881858e-01,1.944989009683361081e-01,2.431533297689062179e-01,2.918077585694771048e-01,3.404621873700471868e-01,3.891166161706173243e-01,5.043070159805141950e-01,6.340521594487011914e-01,7.637973029168902972e-01,8.935424463850771826e-01,9.767124101467358210e-01,8.469672666785467152e-01,7.172221232103597188e-01,5.874769797421728335e-01,4.577318362739858371e-01,3.853739678013426984e-01,3.622051921820232390e-01,3.390364165627041682e-01,3.158676409433850418e-01,2.926988653240655824e-01,2.591338442345391124e-01,2.243806808055604507e-01,1.896275173765817890e-01,1.548743539476031272e-01,1.302204004039684282e-01,1.348541555278322535e-01,1.394879106516960787e-01,1.441216657755599595e-01,1.487554208994237848e-01,2.004396126655975663e-01,2.815303273332143696e-01,3.626210420008312285e-01,4.437117566684494196e-01,5.248024713360662785e-01,4.930196637557179851e-01,4.582665003267387682e-01,4.235133368977601065e-01,3.887601734687814448e-01,3.570961801223787035e-01,3.316105269411276923e-01,3.061248737598762926e-01,2.806392205786252259e-01,2.551535673973742702e-01,2.408958593239469148e-01,2.316283490762192643e-01,2.223608388284916415e-01,2.130933285807639910e-01,2.048951464385432852e-01,2.164795342482030149e-01,2.280639220578625781e-01,2.396483098675221135e-01,2.512326976771818710e-01,2.447573219271666489e-01,2.123210360601198998e-01,1.798847501930731507e-01,1.474484643260264294e-01,1.150121784589791529e-01,1.128735222479653327e-01,1.198241549337610568e-01,1.267747876195569057e-01,1.337254203053526158e-01,1.427553020851898558e-01,1.659240777045089821e-01,1.890928533238280806e-01,2.122616289431475400e-01,2.354304045624666664e-01,2.461830927345096121e-01,2.438662151725776439e-01,2.415493376106457868e-01,2.392324600487138464e-01,2.369155824867819060e-01,2.542030535258122947e-01,2.750549515831998137e-01,2.959068496405873328e-01,3.167587476979741856e-01,3.209766530030290221e-01,2.607378363928003484e-01,2.004990197825697318e-01,1.402602031723390874e-01,8.002138656211044143e-02,7.990257232816527777e-02,1.262401235668026978e-01,1.725776748054416720e-01,2.189152260440806186e-01,2.652527772827180663e-01,2.367373611358639385e-01,2.019841977068847216e-01,1.672310342779066428e-01,1.324778708489274259e-01,1.173290560209120093e-01,1.520822194498900881e-01,1.868353828788693050e-01,2.215885463078473561e-01,2.563417097368265729e-01,2.554506029822369295e-01,2.345987049248500766e-01,2.137468068674625576e-01,1.928949088100757048e-01,1.720430107526881858e-01
2.083333333333333218e-02,5.450046040515653389e-02,8.816758747697973908e-02,1.218347145488029443e-01,1.555018416206261633e-01,1.698319521178637270e-01,1.496316758747698039e-01,1.294313996316758808e-01,1.092311233885819438e-01,8.903084714548802070e-02,1.091160220994475127e-01,1.450276243093922834e-01,1.809392265193370264e-01,2.168508287292817971e-01,2.487914364640883835e-01,2.330801104972375637e-01,2.173687845303867439e-01,2.016574585635358963e-01,1.859461325966850764e-01,1.780616942909760692e-01,1.803061694290976069e-01,1.825506445672191447e-01,1.847951197053407102e-01,1.870395948434622480e-01,1.678752302025782461e-01,1.431860036832412475e-01,1.184967771639042211e-01,9.380755064456720860e-02,7.671500920810314650e-02,1.014042357274401729e-01,1.260934622467771993e-01,1.507826887661141979e-01,1.754719152854511965e-01,1.805939226519336915e-01,1.671270718232044095e-01,1.536602209944751274e-01,1.401933701657458453e-01,1.267265193370165632e-01,1.739180478821363285e-01,2.300299263351752443e-01,2.861418047882137161e-01,3.422536832412521601e-01,3.703959484346224240e-01,3.053061694290972738e-01,2.402163904235726788e-01,1.751266114180480837e-01,1.100368324125229336e-01,9.392265193370175069e-02,1.118784530386740528e-01,1.298342541436463549e-01,1.477900552486187957e-01,1.657458563535912366e-01,1.922191528545119932e-01,2.191528545119704741e-01,2.460865561694291492e-01,2.730202578268878244e-01,2.792357274401472966e-01,2.388351749539596169e-01,1.984346224677716042e-01,1.580340699815835914e-01,1.176335174953959117e-01,1.056629834254143585e-01,1.079074585635359101e-01,1.101519337016574757e-01,1.123964088397789995e-01,1.150437384898710391e-01,1.329995395948434800e-01,1.509553406998159208e-01,1.689111418047882229e-01,1.868669429097605250e-01,1.918738489871086306e-01,1.761625230202577275e-01,1.604511970534069631e-01,1.447398710865561988e-01,1.290285451197052957e-01,1.600483425414367389e-01,2.071823204419890319e-01,2.543162983425413248e-01,3.014502762430943950e-01,3.425989871086555505e-01,3.313766114180478617e-01,3.201542357274401729e-01,3.089318600368324841e-01,2.977094843462246287e-01,2.771639042357273985e-01,2.457412523020258699e-01,2.143186003683238139e-01,1.828959484346222852e-01,1.514732965009207566e-01,2.968462246777160418e-01,4.808931860036821382e-01,6.649401473296512322e-01,8.489871086556173285e-01,9.665630755064460455e-01,7.802716390423553028e-01,5.939802025782676687e-01,4.076887661141800345e-01,2.213973296500924004e-01,1.450851749539593671e-01,1.630409760589319745e-01,1.809967771639042766e-01,1.989525782688765787e-01,2.169083793738491583e-01,2.268070902394107302e-01,2.357849907918969090e-01,2.447628913443830601e-01,2.537407918968692111e-01,2.667472375690609354e-01,2.914364640883978508e-01,3.161256906077347661e-01,3.408149171270721256e-01,3.655041436464089855e-01,3.473756906077347106e-01,3.024861878453038999e-01,2.575966850828731447e-01,2.127071823204416678e-01,1.678176795580109126e-01,1.754143646408839463e-01,1.843922651933702639e-01,1.933701657458564149e-01,2.023480662983425660e-01,1.933701657458564149e-01,1.484806629834256597e-01,1.035911602209941690e-01,5.870165745856339989e-02,1.381215469613264468e-02,2.952348066298389820e-02,7.216850828729311218e-02,1.148135359116023296e-01,1.574585635359115332e-01,1.987223756906076333e-01,2.144337016574586752e-01,2.301450276243094395e-01,2.458563535911602038e-01,2.615676795580111902e-01,2.616252302025781074e-01,2.391804788213627297e-01,2.167357274401473521e-01,1.942909760589319745e-01,1.718462246777162084e-01,1.683931860036832484e-01,1.706376611418047862e-01,1.728821362799263517e-01,1.751266114180479172e-01,1.721915285451195987e-01,1.340354511970534568e-01,9.587937384898730098e-02,5.772329650092053455e-02,1.956721915285439262e-02,3.827117863720067709e-02,1.168278084714557963e-01,1.953844383057083134e-01,2.739410681399634395e-01,3.524976979742185379e-01,3.265999079189688681e-01,2.817104051565373912e-01,2.368209023941059144e-01,1.919313996316759086e-01,1.580916206261511192e-01,1.670695211786371315e-01,1.760474217311234213e-01,1.850253222836097111e-01,1.940032228360957234e-01,1.865216390423571069e-01,1.663213627992636001e-01,1.461210865561694272e-01,1.259208103130752820e-01,1.057205340699817614e-01,1.497467771639044154e-01,1.991252302025790510e-01,2.485036832412520491e-01,2.978821362799267125e-01,3.276358195211782065e-01,3.074355432780846997e-01,2.872352670349905268e-01,2.670349907918970200e-01,2.468347145488028749e-01,2.093692449355425145e-01,1.622352670349909987e-01,1.151012891344379285e-01,6.796731123388641271e-02,2.083333333333333218e-02
